{'uniform': [[0.5993150684931506, 0.14627528606072576, 0.7], [0.07191780821917808, 0.23454889974330598, 0.4], [0.3904109589041096, 0.4883306024507476, 0.2], [0.5034246575342466, 0.16235472921201113, 0.6], [0.1815068493150685, 0.48238262210723476, 0.2], [0.5171232876712328, 0.5018968239848098, 0.2], [0.3698630136986301, 0.3335308222557601, 0.3], [0.06506849315068493, 0.3130872206182109, 0.3], [0.05821917808219178, 0.47049493134873044, 0.2], [0.05821917808219178, 0.47049493134873044, 0.2], [0.05821917808219178, 0.47049493134873044, 0.2], [0.05821917808219178, 0.47049493134873044, 0.2], [0.05821917808219178, 0.47049493134873044, 0.2], [0.05821917808219178, 0.47049493134873044, 0.2], [0.05821917808219178, 0.47049493134873044, 0.2], [0.05821917808219178, 0.47049493134873044, 0.2], [0.05821917808219178, 0.47049493134873044, 0.2], [0.05821917808219178, 0.47049493134873044, 0.2], [0.05821917808219178, 0.47049493134873044, 0.2], [0.05821917808219178, 0.47049493134873044, 0.2], [0.05821917808219178, 0.47049493134873044, 0.2], [0.05821917808219178, 0.47049493134873044, 0.2], [0.05821917808219178, 0.47049493134873044, 0.2], [0.05821917808219178, 0.47049493134873044, 0.2], [0.05821917808219178, 0.47049493134873044, 0.2], [0.05821917808219178, 0.47049493134873044, 0.2], [0.05821917808219178, 0.47049493134873044, 0.2], [0.05821917808219178, 0.47049493134873044, 0.2], [0.05821917808219178, 0.47049493134873044, 0.2], [0.05821917808219178, 0.47049493134873044, 0.2], [0.05821917808219178, 0.47049493134873044, 0.2], [0.05821917808219178, 0.47049493134873044, 0.2], [0.05821917808219178, 0.47049493134873044, 0.2], [0.05821917808219178, 0.47049493134873044, 0.2], [0.05821917808219178, 0.47049493134873044, 0.2], [0.05821917808219178, 0.47049493134873044, 0.2], [0.05821917808219178, 0.47049493134873044, 0.2], [0.05821917808219178, 0.47049493134873044, 0.2], [0.05821917808219178, 0.47049493134873044, 0.2], [0.05821917808219178, 0.47049493134873044, 0.2], [0.05821917808219178, 0.47049493134873044, 0.2], [0.05821917808219178, 0.47049493134873044, 0.2], [0.05821917808219178, 0.47049493134873044, 0.2], [0.05821917808219178, 0.47049493134873044, 0.2], [0.05821917808219178, 0.47049493134873044, 0.2], [0.05821917808219178, 0.47049493134873044, 0.2], [0.05821917808219178, 0.47049493134873044, 0.2], [0.05821917808219178, 0.47049493134873044, 0.2], [0.05821917808219178, 0.47049493134873044, 0.2], [0.05821917808219178, 0.47049493134873044, 0.2], [0.05821917808219178, 0.47049493134873044, 0.2], [0.05821917808219178, 0.47049493134873044, 0.2], [0.05821917808219178, 0.47049493134873044, 0.2], [0.05821917808219178, 0.47049493134873044, 0.2], [0.05821917808219178, 0.47049493134873044, 0.2], [0.05821917808219178, 0.47049493134873044, 0.2], [0.05821917808219178, 0.47049493134873044, 0.2], [0.05821917808219178, 0.47049493134873044, 0.2], [0.05821917808219178, 0.47049493134873044, 0.2], [0.05821917808219178, 0.47049493134873044, 0.2], [0.05821917808219178, 0.47049493134873044, 0.2], [0.05821917808219178, 0.47049493134873044, 0.2], [0.05821917808219178, 0.47049493134873044, 0.2], [0.05821917808219178, 0.47049493134873044, 0.2], [0.05821917808219178, 0.47049493134873044, 0.2], [0.05821917808219178, 0.47049493134873044, 0.2], [0.05821917808219178, 0.47049493134873044, 0.2], [0.05821917808219178, 0.47049493134873044, 0.2], [0.05821917808219178, 0.47049493134873044, 0.2], [0.05821917808219178, 0.47049493134873044, 0.2], [0.05821917808219178, 0.47049493134873044, 0.2], [0.05821917808219178, 0.47049493134873044, 0.2], [0.05821917808219178, 0.47049493134873044, 0.2], [0.05821917808219178, 0.47049493134873044, 0.2], [0.05821917808219178, 0.47049493134873044, 0.2], [0.05821917808219178, 0.47049493134873044, 0.2], [0.05821917808219178, 0.47049493134873044, 0.2], [0.05821917808219178, 0.47049493134873044, 0.2], [0.05821917808219178, 0.47049493134873044, 0.2], [0.05821917808219178, 0.47049493134873044, 0.2], [0.05821917808219178, 0.47049493134873044, 0.2], [0.05821917808219178, 0.47049493134873044, 0.2], [0.05821917808219178, 0.47049493134873044, 0.2], [0.05821917808219178, 0.47049493134873044, 0.2], [0.05821917808219178, 0.47049493134873044, 0.2], [0.05821917808219178, 0.47049493134873044, 0.2], [0.05821917808219178, 0.47049493134873044, 0.2], [0.05821917808219178, 0.47049493134873044, 0.2], [0.05821917808219178, 0.47049493134873044, 0.2], [0.05821917808219178, 0.47049493134873044, 0.2], [0.05821917808219178, 0.47049493134873044, 0.2], [0.05821917808219178, 0.47049493134873044, 0.2], [0.05821917808219178, 0.47049493134873044, 0.2], [0.05821917808219178, 0.47049493134873044, 0.2], [0.05821917808219178, 0.47049493134873044, 0.2], [0.05821917808219178, 0.47049493134873044, 0.2], [0.05821917808219178, 0.47049493134873044, 0.2], [0.05821917808219178, 0.47049493134873044, 0.2], [0.05821917808219178, 0.47049493134873044, 0.2], [0.05821917808219178, 0.47049493134873044, 0.2]], 'adaptive_deviation': [[0.6267123287671232, 0.13588601331784467, 0.7], [0.08561643835616438, 0.2738764875435191, 0.4], [0.4006849315068493, 0.548658441162495, 0.2], [0.5308219178082192, 0.18270108826363934, 0.6], [0.18835616438356165, 0.5398251674214565, 0.2], [0.523972602739726, 0.5675986914301633, 0.2], [0.3664383561643836, 0.39205274438333165, 0.3], [0.06506849315068493, 0.3614317252395251, 0.3], [0.05821917808219178, 0.5215622476437776, 0.2], [0.05821917808219178, 0.5215622476437776, 0.2], [0.05821917808219178, 0.5215622476437776, 0.2], [0.05821917808219178, 0.5215622476437776, 0.2], [0.05821917808219178, 0.5215622476437776, 0.2], [0.05821917808219178, 0.5215622476437776, 0.2], [0.05821917808219178, 0.5215622476437776, 0.2], [0.05821917808219178, 0.5215622476437776, 0.2], [0.05821917808219178, 0.5215622476437776, 0.2], [0.05821917808219178, 0.5215622476437776, 0.2], [0.05821917808219178, 0.5215622476437776, 0.2], [0.05821917808219178, 0.5215622476437776, 0.2], [0.05821917808219178, 0.5215622476437776, 0.2], [0.05821917808219178, 0.5215622476437776, 0.2], [0.05821917808219178, 0.5215622476437776, 0.2], [0.05821917808219178, 0.5215622476437776, 0.2], [0.05821917808219178, 0.5215622476437776, 0.2], [0.05821917808219178, 0.5215622476437776, 0.2], [0.05821917808219178, 0.5215622476437776, 0.2], [0.05821917808219178, 0.5215622476437776, 0.2], [0.05821917808219178, 0.5215622476437776, 0.2], [0.05821917808219178, 0.5215622476437776, 0.2], [0.05821917808219178, 0.5215622476437776, 0.2], [0.05821917808219178, 0.5215622476437776, 0.2], [0.05821917808219178, 0.5215622476437776, 0.2], [0.05821917808219178, 0.5215622476437776, 0.2], [0.05821917808219178, 0.5215622476437776, 0.2], [0.05821917808219178, 0.5215622476437776, 0.2], [0.05821917808219178, 0.5215622476437776, 0.2], [0.05821917808219178, 0.5215622476437776, 0.2], [0.05821917808219178, 0.5215622476437776, 0.2], [0.05821917808219178, 0.5215622476437776, 0.2], [0.05821917808219178, 0.5215622476437776, 0.2], [0.05821917808219178, 0.5215622476437776, 0.2], [0.05821917808219178, 0.5215622476437776, 0.2], [0.05821917808219178, 0.5215622476437776, 0.2], [0.05821917808219178, 0.5215622476437776, 0.2], [0.05821917808219178, 0.5215622476437776, 0.2], [0.05821917808219178, 0.5215622476437776, 0.2], [0.05821917808219178, 0.5215622476437776, 0.2], [0.05821917808219178, 0.5215622476437776, 0.2], [0.05821917808219178, 0.5215622476437776, 0.2], [0.05821917808219178, 0.5215622476437776, 0.2], [0.05821917808219178, 0.5215622476437776, 0.2], [0.05821917808219178, 0.5215622476437776, 0.2], [0.05821917808219178, 0.5215622476437776, 0.2], [0.05821917808219178, 0.5215622476437776, 0.2], [0.05821917808219178, 0.5215622476437776, 0.2], [0.05821917808219178, 0.5215622476437776, 0.2], [0.05821917808219178, 0.5215622476437776, 0.2], [0.05821917808219178, 0.5215622476437776, 0.2], [0.05821917808219178, 0.5215622476437776, 0.2], [0.05821917808219178, 0.5215622476437776, 0.2], [0.05821917808219178, 0.5215622476437776, 0.2], [0.05821917808219178, 0.5215622476437776, 0.2], [0.05821917808219178, 0.5215622476437776, 0.2], [0.05821917808219178, 0.5215622476437776, 0.2], [0.05821917808219178, 0.5215622476437776, 0.2], [0.05821917808219178, 0.5215622476437776, 0.2], [0.05821917808219178, 0.5215622476437776, 0.2], [0.05821917808219178, 0.5215622476437776, 0.2], [0.05821917808219178, 0.5215622476437776, 0.2], [0.05821917808219178, 0.5215622476437776, 0.2], [0.05821917808219178, 0.5215622476437776, 0.2], [0.05821917808219178, 0.5215622476437776, 0.2], [0.05821917808219178, 0.5215622476437776, 0.2], [0.05821917808219178, 0.5215622476437776, 0.2], [0.05821917808219178, 0.5215622476437776, 0.2], [0.05821917808219178, 0.5215622476437776, 0.2], [0.05821917808219178, 0.5215622476437776, 0.2], [0.05821917808219178, 0.5215622476437776, 0.2], [0.05821917808219178, 0.5215622476437776, 0.2], [0.05821917808219178, 0.5215622476437776, 0.2], [0.05821917808219178, 0.5215622476437776, 0.2], [0.05821917808219178, 0.5215622476437776, 0.2], [0.05821917808219178, 0.5215622476437776, 0.2], [0.05821917808219178, 0.5215622476437776, 0.2], [0.05821917808219178, 0.5215622476437776, 0.2], [0.05821917808219178, 0.5215622476437776, 0.2], [0.05821917808219178, 0.5215622476437776, 0.2], [0.05821917808219178, 0.5215622476437776, 0.2], [0.05821917808219178, 0.5215622476437776, 0.2], [0.05821917808219178, 0.5215622476437776, 0.2], [0.05821917808219178, 0.5215622476437776, 0.2], [0.05821917808219178, 0.5215622476437776, 0.2], [0.05821917808219178, 0.5215622476437776, 0.2], [0.05821917808219178, 0.5215622476437776, 0.2], [0.05821917808219178, 0.5215622476437776, 0.2], [0.05821917808219178, 0.5215622476437776, 0.2], [0.05821917808219178, 0.5215622476437776, 0.2], [0.05821917808219178, 0.5215622476437776, 0.2], [0.05821917808219178, 0.5215622476437776, 0.2]], 'adaptive_heuristic': [[0.6027397260273972, 0.1469658568829791, 0.7], [0.08561643835616438, 0.2796332731272177, 0.4], [0.3938356164383562, 0.5680932605907569, 0.2], [0.5171232876712328, 0.16404700135589356, 0.6], [0.1815068493150685, 0.568622258588306, 0.2], [0.5205479452054794, 0.5793420958380936, 0.2], [0.363013698630137, 0.4125503949254339, 0.3], [0.06506849315068493, 0.38602068938238376, 0.3], [0.04794520547945205, 0.5511810878727627, 0.2], [0.04794520547945205, 0.5511810878727627, 0.2], [0.04794520547945205, 0.5511810878727627, 0.2], [0.04794520547945205, 0.5511810878727627, 0.2], [0.04794520547945205, 0.5511810878727627, 0.2], [0.04794520547945205, 0.5511810878727627, 0.2], [0.04794520547945205, 0.5511810878727627, 0.2], [0.04794520547945205, 0.5511810878727627, 0.2], [0.04794520547945205, 0.5511810878727627, 0.2], [0.04794520547945205, 0.5511810878727627, 0.2], [0.04794520547945205, 0.5511810878727627, 0.2], [0.04794520547945205, 0.5511810878727627, 0.2], [0.04794520547945205, 0.5511810878727627, 0.2], [0.04794520547945205, 0.5511810878727627, 0.2], [0.04794520547945205, 0.5511810878727627, 0.2], [0.04794520547945205, 0.5511810878727627, 0.2], [0.04794520547945205, 0.5511810878727627, 0.2], [0.04794520547945205, 0.5511810878727627, 0.2], [0.04794520547945205, 0.5511810878727627, 0.2], [0.04794520547945205, 0.5511810878727627, 0.2], [0.04794520547945205, 0.5511810878727627, 0.2], [0.04794520547945205, 0.5511810878727627, 0.2], [0.04794520547945205, 0.5511810878727627, 0.2], [0.04794520547945205, 0.5511810878727627, 0.2], [0.04794520547945205, 0.5511810878727627, 0.2], [0.04794520547945205, 0.5511810878727627, 0.2], [0.04794520547945205, 0.5511810878727627, 0.2], [0.04794520547945205, 0.5511810878727627, 0.2], [0.04794520547945205, 0.5511810878727627, 0.2], [0.04794520547945205, 0.5511810878727627, 0.2], [0.04794520547945205, 0.5511810878727627, 0.2], [0.04794520547945205, 0.5511810878727627, 0.2], [0.04794520547945205, 0.5511810878727627, 0.2], [0.04794520547945205, 0.5511810878727627, 0.2], [0.04794520547945205, 0.5511810878727627, 0.2], [0.04794520547945205, 0.5511810878727627, 0.2], [0.04794520547945205, 0.5511810878727627, 0.2], [0.04794520547945205, 0.5511810878727627, 0.2], [0.04794520547945205, 0.5511810878727627, 0.2], [0.04794520547945205, 0.5511810878727627, 0.2], [0.04794520547945205, 0.5511810878727627, 0.2], [0.04794520547945205, 0.5511810878727627, 0.2], [0.04794520547945205, 0.5511810878727627, 0.2], [0.04794520547945205, 0.5511810878727627, 0.2], [0.04794520547945205, 0.5511810878727627, 0.2], [0.04794520547945205, 0.5511810878727627, 0.2], [0.04794520547945205, 0.5511810878727627, 0.2], [0.04794520547945205, 0.5511810878727627, 0.2], [0.04794520547945205, 0.5511810878727627, 0.2], [0.04794520547945205, 0.5511810878727627, 0.2], [0.04794520547945205, 0.5511810878727627, 0.2], [0.04794520547945205, 0.5511810878727627, 0.2], [0.04794520547945205, 0.5511810878727627, 0.2], [0.04794520547945205, 0.5511810878727627, 0.2], [0.04794520547945205, 0.5511810878727627, 0.2], [0.04794520547945205, 0.5511810878727627, 0.2], [0.04794520547945205, 0.5511810878727627, 0.2], [0.04794520547945205, 0.5511810878727627, 0.2], [0.04794520547945205, 0.5511810878727627, 0.2], [0.04794520547945205, 0.5511810878727627, 0.2], [0.04794520547945205, 0.5511810878727627, 0.2], [0.04794520547945205, 0.5511810878727627, 0.2], [0.04794520547945205, 0.5511810878727627, 0.2], [0.04794520547945205, 0.5511810878727627, 0.2], [0.04794520547945205, 0.5511810878727627, 0.2], [0.04794520547945205, 0.5511810878727627, 0.2], [0.04794520547945205, 0.5511810878727627, 0.2], [0.04794520547945205, 0.5511810878727627, 0.2], [0.04794520547945205, 0.5511810878727627, 0.2], [0.04794520547945205, 0.5511810878727627, 0.2], [0.04794520547945205, 0.5511810878727627, 0.2], [0.04794520547945205, 0.5511810878727627, 0.2], [0.04794520547945205, 0.5511810878727627, 0.2], [0.04794520547945205, 0.5511810878727627, 0.2], [0.04794520547945205, 0.5511810878727627, 0.2], [0.04794520547945205, 0.5511810878727627, 0.2], [0.04794520547945205, 0.5511810878727627, 0.2], [0.04794520547945205, 0.5511810878727627, 0.2], [0.04794520547945205, 0.5511810878727627, 0.2], [0.04794520547945205, 0.5511810878727627, 0.2], [0.04794520547945205, 0.5511810878727627, 0.2], [0.04794520547945205, 0.5511810878727627, 0.2], [0.04794520547945205, 0.5511810878727627, 0.2], [0.04794520547945205, 0.5511810878727627, 0.2], [0.04794520547945205, 0.5511810878727627, 0.2], [0.04794520547945205, 0.5511810878727627, 0.2], [0.04794520547945205, 0.5511810878727627, 0.2], [0.04794520547945205, 0.5511810878727627, 0.2], [0.04794520547945205, 0.5511810878727627, 0.2], [0.04794520547945205, 0.5511810878727627, 0.2], [0.04794520547945205, 0.5511810878727627, 0.2], [0.04794520547945205, 0.5511810878727627, 0.2]], 'adaptive_uniform': [[0.613013698630137, 0.11846297108749772, 0.7], [0.06506849315068493, 0.23442707651625658, 0.4], [0.3972602739726027, 0.49858980480174825, 0.2], [0.5205479452054794, 0.1524322836718121, 0.6], [0.18493150684931506, 0.4914224170746485, 0.2], [0.5171232876712328, 0.5094501503109821, 0.2], [0.3698630136986301, 0.3418561841269836, 0.3], [0.06506849315068493, 0.3214226886377861, 0.3], [0.05821917808219178, 0.4780482576749026, 0.2], [0.05821917808219178, 0.4780482576749026, 0.2], [0.05821917808219178, 0.4780482576749026, 0.2], [0.05821917808219178, 0.4780482576749026, 0.2], [0.05821917808219178, 0.4780482576749026, 0.2], [0.05821917808219178, 0.4780482576749026, 0.2], [0.05821917808219178, 0.4780482576749026, 0.2], [0.05821917808219178, 0.4780482576749026, 0.2], [0.05821917808219178, 0.4780482576749026, 0.2], [0.05821917808219178, 0.4780482576749026, 0.2], [0.05821917808219178, 0.4780482576749026, 0.2], [0.05821917808219178, 0.4780482576749026, 0.2], [0.05821917808219178, 0.4780482576749026, 0.2], [0.05821917808219178, 0.4780482576749026, 0.2], [0.05821917808219178, 0.4780482576749026, 0.2], [0.05821917808219178, 0.4780482576749026, 0.2], [0.05821917808219178, 0.4780482576749026, 0.2], [0.05821917808219178, 0.4780482576749026, 0.2], [0.05821917808219178, 0.4780482576749026, 0.2], [0.05821917808219178, 0.4780482576749026, 0.2], [0.05821917808219178, 0.4780482576749026, 0.2], [0.05821917808219178, 0.4780482576749026, 0.2], [0.05821917808219178, 0.4780482576749026, 0.2], [0.05821917808219178, 0.4780482576749026, 0.2], [0.05821917808219178, 0.4780482576749026, 0.2], [0.05821917808219178, 0.4780482576749026, 0.2], [0.05821917808219178, 0.4780482576749026, 0.2], [0.05821917808219178, 0.4780482576749026, 0.2], [0.05821917808219178, 0.4780482576749026, 0.2], [0.05821917808219178, 0.4780482576749026, 0.2], [0.05821917808219178, 0.4780482576749026, 0.2], [0.05821917808219178, 0.4780482576749026, 0.2], [0.05821917808219178, 0.4780482576749026, 0.2], [0.05821917808219178, 0.4780482576749026, 0.2], [0.05821917808219178, 0.4780482576749026, 0.2], [0.05821917808219178, 0.4780482576749026, 0.2], [0.05821917808219178, 0.4780482576749026, 0.2], [0.05821917808219178, 0.4780482576749026, 0.2], [0.05821917808219178, 0.4780482576749026, 0.2], [0.05821917808219178, 0.4780482576749026, 0.2], [0.05821917808219178, 0.4780482576749026, 0.2], [0.05821917808219178, 0.4780482576749026, 0.2], [0.05821917808219178, 0.4780482576749026, 0.2], [0.05821917808219178, 0.4780482576749026, 0.2], [0.05821917808219178, 0.4780482576749026, 0.2], [0.05821917808219178, 0.4780482576749026, 0.2], [0.05821917808219178, 0.4780482576749026, 0.2], [0.05821917808219178, 0.4780482576749026, 0.2], [0.05821917808219178, 0.4780482576749026, 0.2], [0.05821917808219178, 0.4780482576749026, 0.2], [0.05821917808219178, 0.4780482576749026, 0.2], [0.05821917808219178, 0.4780482576749026, 0.2], [0.05821917808219178, 0.4780482576749026, 0.2], [0.05821917808219178, 0.4780482576749026, 0.2], [0.05821917808219178, 0.4780482576749026, 0.2], [0.05821917808219178, 0.4780482576749026, 0.2], [0.05821917808219178, 0.4780482576749026, 0.2], [0.05821917808219178, 0.4780482576749026, 0.2], [0.05821917808219178, 0.4780482576749026, 0.2], [0.05821917808219178, 0.4780482576749026, 0.2], [0.05821917808219178, 0.4780482576749026, 0.2], [0.05821917808219178, 0.4780482576749026, 0.2], [0.05821917808219178, 0.4780482576749026, 0.2], [0.05821917808219178, 0.4780482576749026, 0.2], [0.05821917808219178, 0.4780482576749026, 0.2], [0.05821917808219178, 0.4780482576749026, 0.2], [0.05821917808219178, 0.4780482576749026, 0.2], [0.05821917808219178, 0.4780482576749026, 0.2], [0.05821917808219178, 0.4780482576749026, 0.2], [0.05821917808219178, 0.4780482576749026, 0.2], [0.05821917808219178, 0.4780482576749026, 0.2], [0.05821917808219178, 0.4780482576749026, 0.2], [0.05821917808219178, 0.4780482576749026, 0.2], [0.05821917808219178, 0.4780482576749026, 0.2], [0.05821917808219178, 0.4780482576749026, 0.2], [0.05821917808219178, 0.4780482576749026, 0.2], [0.05821917808219178, 0.4780482576749026, 0.2], [0.05821917808219178, 0.4780482576749026, 0.2], [0.05821917808219178, 0.4780482576749026, 0.2], [0.05821917808219178, 0.4780482576749026, 0.2], [0.05821917808219178, 0.4780482576749026, 0.2], [0.05821917808219178, 0.4780482576749026, 0.2], [0.05821917808219178, 0.4780482576749026, 0.2], [0.05821917808219178, 0.4780482576749026, 0.2], [0.05821917808219178, 0.4780482576749026, 0.2], [0.05821917808219178, 0.4780482576749026, 0.2], [0.05821917808219178, 0.4780482576749026, 0.2], [0.05821917808219178, 0.4780482576749026, 0.2], [0.05821917808219178, 0.4780482576749026, 0.2], [0.05821917808219178, 0.4780482576749026, 0.2], [0.05821917808219178, 0.4780482576749026, 0.2], [0.05821917808219178, 0.4780482576749026, 0.2]], 'adaptive_gambler': [[0.6164383561643836, 0.11282516776767364, 0.7], [0.07876712328767123, 0.24427908105049148, 0.4], [0.3904109589041096, 0.5221038889820728, 0.2], [0.5102739726027398, 0.1440857284600362, 0.6], [0.17465753424657535, 0.5146741327115008, 0.2], [0.5205479452054794, 0.5354516324815894, 0.2], [0.3664383561643836, 0.3555656692259121, 0.3], [0.05821917808219178, 0.33510530199526345, 0.3], [0.05136986301369863, 0.5043936059929175, 0.2], [0.05136986301369863, 0.5043936059929175, 0.2], [0.05136986301369863, 0.5043936059929175, 0.2], [0.05136986301369863, 0.5043936059929175, 0.2], [0.05136986301369863, 0.5043936059929175, 0.2], [0.05136986301369863, 0.5043936059929175, 0.2], [0.05136986301369863, 0.5043936059929175, 0.2], [0.05136986301369863, 0.5043936059929175, 0.2], [0.05136986301369863, 0.5043936059929175, 0.2], [0.05136986301369863, 0.5043936059929175, 0.2], [0.05136986301369863, 0.5043936059929175, 0.2], [0.05136986301369863, 0.5043936059929175, 0.2], [0.05136986301369863, 0.5043936059929175, 0.2], [0.05136986301369863, 0.5043936059929175, 0.2], [0.05136986301369863, 0.5043936059929175, 0.2], [0.05136986301369863, 0.5043936059929175, 0.2], [0.05136986301369863, 0.5043936059929175, 0.2], [0.05136986301369863, 0.5043936059929175, 0.2], [0.05136986301369863, 0.5043936059929175, 0.2], [0.05136986301369863, 0.5043936059929175, 0.2], [0.05136986301369863, 0.5043936059929175, 0.2], [0.05136986301369863, 0.5043936059929175, 0.2], [0.05136986301369863, 0.5043936059929175, 0.2], [0.05136986301369863, 0.5043936059929175, 0.2], [0.05136986301369863, 0.5043936059929175, 0.2], [0.05136986301369863, 0.5043936059929175, 0.2], [0.05136986301369863, 0.5043936059929175, 0.2], [0.05136986301369863, 0.5043936059929175, 0.2], [0.05136986301369863, 0.5043936059929175, 0.2], [0.05136986301369863, 0.5043936059929175, 0.2], [0.05136986301369863, 0.5043936059929175, 0.2], [0.05136986301369863, 0.5043936059929175, 0.2], [0.05136986301369863, 0.5043936059929175, 0.2], [0.05136986301369863, 0.5043936059929175, 0.2], [0.05136986301369863, 0.5043936059929175, 0.2], [0.05136986301369863, 0.5043936059929175, 0.2], [0.05136986301369863, 0.5043936059929175, 0.2], [0.05136986301369863, 0.5043936059929175, 0.2], [0.05136986301369863, 0.5043936059929175, 0.2], [0.05136986301369863, 0.5043936059929175, 0.2], [0.05136986301369863, 0.5043936059929175, 0.2], [0.05136986301369863, 0.5043936059929175, 0.2], [0.05136986301369863, 0.5043936059929175, 0.2], [0.05136986301369863, 0.5043936059929175, 0.2], [0.05136986301369863, 0.5043936059929175, 0.2], [0.05136986301369863, 0.5043936059929175, 0.2], [0.05136986301369863, 0.5043936059929175, 0.2], [0.05136986301369863, 0.5043936059929175, 0.2], [0.05136986301369863, 0.5043936059929175, 0.2], [0.05136986301369863, 0.5043936059929175, 0.2], [0.05136986301369863, 0.5043936059929175, 0.2], [0.05136986301369863, 0.5043936059929175, 0.2], [0.05136986301369863, 0.5043936059929175, 0.2], [0.05136986301369863, 0.5043936059929175, 0.2], [0.05136986301369863, 0.5043936059929175, 0.2], [0.05136986301369863, 0.5043936059929175, 0.2], [0.05136986301369863, 0.5043936059929175, 0.2], [0.05136986301369863, 0.5043936059929175, 0.2], [0.05136986301369863, 0.5043936059929175, 0.2], [0.05136986301369863, 0.5043936059929175, 0.2], [0.05136986301369863, 0.5043936059929175, 0.2], [0.05136986301369863, 0.5043936059929175, 0.2], [0.05136986301369863, 0.5043936059929175, 0.2], [0.05136986301369863, 0.5043936059929175, 0.2], [0.05136986301369863, 0.5043936059929175, 0.2], [0.05136986301369863, 0.5043936059929175, 0.2], [0.05136986301369863, 0.5043936059929175, 0.2], [0.05136986301369863, 0.5043936059929175, 0.2], [0.05136986301369863, 0.5043936059929175, 0.2], [0.05136986301369863, 0.5043936059929175, 0.2], [0.05136986301369863, 0.5043936059929175, 0.2], [0.05136986301369863, 0.5043936059929175, 0.2], [0.05136986301369863, 0.5043936059929175, 0.2], [0.05136986301369863, 0.5043936059929175, 0.2], [0.05136986301369863, 0.5043936059929175, 0.2], [0.05136986301369863, 0.5043936059929175, 0.2], [0.05136986301369863, 0.5043936059929175, 0.2], [0.05136986301369863, 0.5043936059929175, 0.2], [0.05136986301369863, 0.5043936059929175, 0.2], [0.05136986301369863, 0.5043936059929175, 0.2], [0.05136986301369863, 0.5043936059929175, 0.2], [0.05136986301369863, 0.5043936059929175, 0.2], [0.05136986301369863, 0.5043936059929175, 0.2], [0.05136986301369863, 0.5043936059929175, 0.2], [0.05136986301369863, 0.5043936059929175, 0.2], [0.05136986301369863, 0.5043936059929175, 0.2], [0.05136986301369863, 0.5043936059929175, 0.2], [0.05136986301369863, 0.5043936059929175, 0.2], [0.05136986301369863, 0.5043936059929175, 0.2], [0.05136986301369863, 0.5043936059929175, 0.2], [0.05136986301369863, 0.5043936059929175, 0.2], [0.05136986301369863, 0.5043936059929175, 0.2]]}
