-0.3789730154928607,0.2,0.17
0.7267886508201045,0.2,0.14
-0.6126280253267288,0.2,0.14
7.723340515216454,0.2,0.15
-0.05915964189091325,0.2,0.52
-0.03911320086915547,0.2,0.21
-0.006659280072724487,0.2,0.15
-0.003745782976702838,0.2,0.14
-0.0038822232796439835,0.2,0.14
-0.005427085978395514,0.2,0.14
-0.0043754961256102474,0.2,0.15
-0.0036397505982909374,0.2,0.14
-0.05301620159397072,0.2,0.17
-0.006662234808517986,0.2,0.14
-0.004523174664190369,0.2,0.14
-0.01929486679061695,0.2,0.23
-0.012749485672353173,0.2,0.18
-0.003638934471655629,0.2,0.14
-0.01007303151455944,0.2,0.17
-0.03403408908661016,0.2,0.26
-0.016710276879878957,0.2,0.18
-0.004941325625507444,0.2,0.15
-0.010743440111110777,0.2,0.14
-0.006908233666033399,0.2,0.14
-0.00918266810060631,0.2,0.14
-0.10124000279425371,0.2,0.17
-0.007905347823045037,0.2,0.14
-0.007914841895673295,0.2,0.14
-0.08861289768820184,0.2,0.49
-0.05170901562053449,0.2,0.19
-0.006555225289936319,0.2,0.14
-0.017330939392780166,0.2,0.17
-0.009308724372382303,0.2,0.15
-0.007334910736193958,0.2,0.14
-0.004550904028984748,0.2,0.14
-0.0033899442847156376,0.2,0.14
-0.005928630262089551,0.2,0.15
-0.07242889510805278,0.2,0.17
-0.005921985561292481,0.2,0.14
-0.010243027149774542,0.2,0.14
-0.020665284501018722,0.2,0.17
-0.03431104833176953,0.2,0.2
-0.007940841092434947,0.2,0.14
-0.01175427642001968,0.2,0.14
-0.01297580532197365,0.2,0.15
-0.006841868261454277,0.2,0.14
-0.007513771574695262,0.2,0.14
-0.009343615243384647,0.2,0.15
-0.007176125273057862,0.2,0.14
-0.005260272245080836,0.2,0.14
-0.03068989195084893,0.2,0.17
-0.008552344021022994,0.2,0.14
-0.006750495736982618,0.2,0.14
-0.08978370336865954,0.2,0.23
-0.09974248156027093,0.2,0.54
-0.09353028674088582,0.2,0.29
-0.010555283623212204,0.2,0.14
-0.013912654598016659,0.2,0.14
-0.00795497634322533,0.2,0.15
-0.012538529666847063,0.2,0.14
-0.008009848461272166,0.2,0.14
-0.020065098440746106,0.2,0.14
-0.2196001385920449,0.2,0.18
-0.02376873925298988,0.2,0.14
-0.01528713277754644,0.2,0.14
-0.1892813217121226,0.2,0.25
-0.20067270259828168,0.2,0.58
-0.20721368457615472,0.2,0.29
-0.010130533003142768,0.2,0.15
-0.014579645157484783,0.2,0.14
-0.03107550738432064,0.2,0.14
-0.026278323221780763,0.2,0.14
-0.032152828641652316,0.2,0.15
-0.035167594824368695,0.2,0.14
-0.0659257021254865,0.2,0.14
-0.9076811194247816,0.2,0.17
-0.10982131758640072,0.2,0.14
-0.12353507102942646,0.2,0.14
-3.2466702899530393,0.2,0.39
-2.004536595196994,0.2,0.19
-0.17898345253141407,0.2,0.15
-0.07729781744340793,0.2,0.14
-0.10586904760281672,0.2,0.14
-0.07837780575034718,0.2,0.15
-0.06152194424577464,0.2,0.14
-0.05631773946852845,0.2,0.14
-0.07914872979251157,0.2,0.14
-0.16893301678973402,0.2,0.18
-0.06355082967205077,0.2,0.14
-0.06861899316623932,0.2,0.14
-0.9550373634455815,0.2,0.31
-1.307422773204776,0.2,0.35
-0.09625508097472779,0.2,0.15
-0.13739332504366164,0.2,0.14
-0.16588440710684368,0.2,0.14
-0.11898211538393967,0.2,0.14
-0.11793587554406865,0.2,0.15
-0.08728992821809436,0.2,0.14
-0.12122455454392161,0.2,0.14
-0.08877776178483224,0.2,0.15
-0.4076893534250086,0.2,0.17
-0.12583016563809976,0.2,0.14
-0.12056050880402996,0.2,0.14
-0.607431052257593,0.2,0.24
-0.8967207383518011,0.2,0.2
-0.11876364309515852,0.2,0.14
-0.08968115718634416,0.2,0.15
-0.09590217008543407,0.2,0.14
-0.09213332783606451,0.2,0.14
-0.11748290654557413,0.2,0.15
-0.04298958525371478,0.2,0.14
-0.04025420604605511,0.2,0.14
-0.4112361483855118,0.2,0.17
-0.04633086802952751,0.2,0.14
-0.02642093110239969,0.2,0.14
-0.203132376673118,0.2,0.3
-0.18094505723736856,0.2,0.22
-0.33181315700100256,0.2,0.34
-0.29153641141376074,0.2,0.2
-0.11041676503221708,0.2,0.14
-0.09204571086659356,0.2,0.14
-0.06790893208723882,0.2,0.15
-0.04494442873345739,0.2,0.14
-0.04277093509634503,0.2,0.14
-0.07700096220997674,0.2,0.14
-0.10967283859920995,0.2,0.17
-0.07689595838920009,0.2,0.14
-0.08702680535219981,0.2,0.15
-0.42166338785342705,0.2,0.28
-0.7400978561044227,0.2,0.4
-0.024390622103248476,0.2,0.15
-0.02012140075671744,0.2,0.14
-0.03637725376461514,0.2,0.14
-0.03047337505863816,0.2,0.15
-0.03294653449924876,0.2,0.14
-0.04416460769321047,0.2,0.14
-0.04619587059281922,0.2,0.15
-0.25616722414041604,0.2,0.17
-0.045104072729681914,0.2,0.14
-0.023348492513000862,0.2,0.14
-0.04088287037528054,0.2,0.15
-0.5514782016951625,0.2,0.33
-0.2472061135166716,0.2,0.25
-0.057942783326676364,0.2,0.14
-0.027046578674811302,0.2,0.15
-0.027855282332390357,0.2,0.14
-0.02874570217958166,0.2,0.14
-0.04226690369900345,0.2,0.15
-0.023885486157314333,0.2,0.14
-0.019305413099330464,0.2,0.14
-0.1265766280198622,0.2,0.17
-0.024516612270464085,0.2,0.14
-0.02272824591209478,0.2,0.14
-0.345180665156916,0.2,0.28
-0.6464505212136499,0.2,0.24
-0.03284235271853084,0.2,0.14
-0.04865052140209819,0.2,0.14
-0.05365463508675633,0.2,0.15
-0.04448053417392001,0.2,0.14
-0.03562998798815676,0.2,0.14
-0.03662007801682472,0.2,0.14
-0.04195492314890436,0.2,0.15
-0.23141665202917347,0.2,0.17
-0.0186783168948952,0.2,0.14
-0.014388163218605894,0.2,0.14
-0.25755150315932984,0.2,0.22
-0.35574942198503595,0.2,0.3
-0.030391965334298846,0.2,0.14
-0.02524221705465488,0.2,0.15
-0.028990972602867485,0.2,0.14
-0.023052760449854038,0.2,0.14
-0.02556656185565626,0.2,0.15
-0.02269049963668883,0.2,0.14
-0.023391181715204684,0.2,0.14
-0.016172504300290113,0.2,0.14
-0.21538971066147622,0.2,0.17
-0.020126871765552154,0.2,0.14
-0.015498553473777963,0.2,0.14
-0.09442084044486121,0.2,0.19
-0.1248392966989725,0.2,0.28
-0.028146592393215722,0.2,0.14
-0.024711872891384937,0.2,0.15
-0.02601476478689089,0.2,0.14
-0.026640973236242132,0.2,0.14
-0.021424500990283406,0.2,0.14
-0.02826469824055596,0.2,0.15
-0.038781510537456015,0.2,0.14
-0.229926460839213,0.2,0.17
-0.06244674427563469,0.2,0.15
-0.06400576925867611,0.2,0.14
-0.0608986502361699,0.2,0.14
-0.12550047278984922,0.2,0.21
-0.2407205625440011,0.2,0.34
-0.17708680084867973,0.2,0.29
-0.17299586703595607,0.2,0.24
-0.06647998830106455,0.2,0.16
-0.05779449835712428,0.2,0.14
-0.054718846248634254,0.2,0.14
-0.03787494955975665,0.2,0.15
-0.034297779028141955,0.2,0.14
-0.2925588028741643,0.2,0.17
-0.018518626925306057,0.2,0.14
-0.018267269830079355,0.2,0.14
-0.2656788090656029,0.2,0.23
-0.39822493298938383,0.2,0.31
-0.20441091969849942,0.2,0.28
-0.10144523286293275,0.2,0.19
-0.02167472355451483,0.2,0.15
-0.02490940955429753,0.2,0.14
-0.03216281641963869,0.2,0.14
-0.027351250173563577,0.2,0.14
-0.013740133662142858,0.2,0.15
-0.11133994294268681,0.2,0.17
-0.03609522306738431,0.2,0.14
-0.03377296562595552,0.2,0.14
-0.2596939737410608,0.2,0.24
-0.37238581581118707,0.2,0.29
-0.023487943733705233,0.2,0.15
-0.02338026195423182,0.2,0.14
-0.02303911983582939,0.2,0.14
-0.02920643906574874,0.2,0.15
-0.029984676808437177,0.2,0.14
-0.030051747767325932,0.2,0.14
-0.02273175019385976,0.2,0.14
-0.022216848812079984,0.2,0.15
-0.2798683206838944,0.2,0.23
-0.08439121475516471,0.2,0.18
-0.03840633055768513,0.2,0.14
-0.1618107598419729,0.2,0.26
-0.07388277246854233,0.2,0.19
-0.23044461922785317,0.2,0.31
-0.10211449310756149,0.2,0.21
-0.05110313072550573,0.2,0.18
-0.018452432203351174,0.2,0.14
-0.03660814024117442,0.2,0.15
-0.035902209325562255,0.2,0.14
-0.0430732985573003,0.2,0.14
-0.3058289246616476,0.2,0.17
-0.009541731564140702,0.2,0.14
-0.01907034343407934,0.2,0.14
-0.19279738879447483,0.2,0.31
-0.2530211380678949,0.2,0.37
-0.1995629524514267,0.2,0.5
-0.024906589352243592,0.2,0.14
-0.07164974132690995,0.2,0.15
-0.05257428496039562,0.2,0.14
-0.042623294928722875,0.2,0.14
-0.06313121736025772,0.2,0.15
-0.04029880410252043,0.2,0.14
-0.0341540663884925,0.2,0.14
-0.7512635314109306,0.2,0.17
-0.05797536945879133,0.2,0.14
-0.04426788321714858,0.2,0.14
-0.5759563782747463,0.2,0.49
-0.5279759989543029,0.2,0.38
-0.061538234214682234,0.2,0.14
-0.06666455763868952,0.2,0.15
-0.06962250795754812,0.2,0.14
-0.04831592391497437,0.2,0.14
-0.11199859126635427,0.2,0.14
-0.09138933246891409,0.2,0.15
-0.13444249070837785,0.2,0.14
-3.7085128723545715,0.2,0.17
-0.11617549419494765,0.2,0.14
-0.1201702798295238,0.2,0.14
-2.1372170039646514,0.2,0.22
-2.730473722802476,0.2,0.29
-0.24565172166373828,0.2,0.14
-0.172289263496009,0.2,0.14
-0.15710687019615852,0.2,0.15
-0.2291839444583289,0.2,0.14
-0.17196123234691785,0.2,0.14
-0.16436397334924074,0.2,0.14
-0.12929734771748577,0.2,0.15
-0.14651811816898835,0.2,0.14
-0.21339665785733983,0.2,0.17
-0.23185782100710964,0.2,0.14
-0.24003404533957193,0.2,0.14
-0.7913011787826675,0.2,0.21
-0.18154746392721993,0.2,0.15
-1.0569433944110207,0.2,0.22
-1.180922378934056,0.2,0.23
-0.32909761726861947,0.2,0.14
-0.16448398504582085,0.2,0.15
-0.18435932913458528,0.2,0.14
-0.46272315845554535,0.2,0.15
-0.2648786771549647,0.2,0.14
-0.2524847736604088,0.2,0.17
-0.1823504647062957,0.2,0.14
-0.10834732332115152,0.2,0.14
-1.0176833952534365,0.2,0.36
-1.0071069282277765,0.2,0.47
-0.23471550798329113,0.2,0.16
-0.13739979887849432,0.2,0.14
-0.09637646067216656,0.2,0.15
-0.09236587241985061,0.2,0.14
-0.13830048625805236,0.2,0.14
-0.16487696939552093,0.2,0.15
-0.16969837397271895,0.2,0.14
-0.2163066467123233,0.2,0.14
-1.7502641828536993,0.2,0.17
-0.19089037111708115,0.2,0.14
-0.8498338540075726,0.2,0.16
-1.0702957032161526,0.2,0.55
-0.5040682132416672,0.2,0.21
-0.09741938905958196,0.2,0.14
-0.052966655164054084,0.2,0.14
-0.031115404429179813,0.2,0.15
-0.03908551392264452,0.2,0.14
-0.038977985495540546,0.2,0.14
-0.047181053471727366,0.2,0.15
-0.049710521142668045,0.2,0.14
-0.6428957814047337,0.2,0.17
-0.017442913321415215,0.2,0.14
-0.043428918242584644,0.2,0.14
-0.5113531429294552,0.2,0.29
-0.9024682348945593,0.2,0.33
-0.12070581875653859,0.2,0.14
-0.06121076220731607,0.2,0.14
-0.05852714003179399,0.2,0.15
-0.034688797448151086,0.2,0.14
-0.04399558846746606,0.2,0.14
-0.05193924923368568,0.2,0.15
-0.03637757582223674,0.2,0.14
-0.045059740979280456,0.2,0.14
-0.05507121784857923,0.2,0.17
-0.03232990687691418,0.2,0.14
-0.034909961702369666,0.2,0.14
-0.42265602654467826,0.2,0.27
-0.13440302020910405,0.2,0.17
-0.0621347820125617,0.2,0.15
-0.043518889705107436,0.2,0.14
-0.03597496982860325,0.2,0.14
-0.04649039815622013,0.2,0.15
-0.04697820523502893,0.2,0.14
-0.06177354627922684,0.2,0.14
-0.05250877960931544,0.2,0.14
-0.1102436330362032,0.2,0.18
-0.11047190615172506,0.2,0.14
-0.08861789034459443,0.2,0.14
-0.3126202810483521,0.2,0.2
-0.22771713153600423,0.2,0.21
-0.5764523265258307,0.2,0.49
-0.7508342024871506,0.2,0.43
-0.23879249377259162,0.2,0.17
-0.13031730030120267,0.2,0.15
-0.09487998447377478,0.2,0.14
-0.11999038015245547,0.2,0.14
-0.13423455903594075,0.2,0.14
-0.07981675219334014,0.2,0.15
-0.2801875092538148,0.2,0.17
-0.08642484942941199,0.2,0.14
-0.08859541939899417,0.2,0.14
-1.053211252343355,0.2,0.61
-1.119979355653414,0.2,0.44
-0.1872180839330796,0.2,0.15
-0.09548323597337376,0.2,0.14
-0.257013511690895,0.2,0.14
-0.3094665793670671,0.2,0.15
-0.9458983359502054,0.2,0.14
-3.730402098123081,0.2,0.14
0.9880943560256042,0.2,0.14
8.173330113190483,0.2,0.18
0.5053291562754842,0.2,0.14
0.7934897686300282,0.2,0.14
2.073004969708099,0.2,0.3
0.9531653509544022,0.2,0.18
1.6764542411122882,0.2,0.29
2.876812007837175,0.2,0.21
1.3959974988186739,0.2,0.16
1.0270441993019648,0.2,0.15
2.9665713620459075,0.2,0.14
-2.0192962334191393,0.2,0.14
-1.0883662977857307,0.2,0.15
-0.4516026589598524,0.2,0.14
-4.401655600962372,0.2,0.17
-0.2308006867358165,0.2,0.14
-0.5854704155059086,0.2,0.14
-5.762260962194714,0.2,0.29
-2.9082430991588435,0.2,0.15
-14.701112916540065,0.2,0.19
-15.806898758294338,0.2,0.15
-10.668876174098173,0.2,0.19
-3.701405126896123,0.2,0.15
-3.458963263989672,0.2,0.14
-2.5570731554064676,0.2,0.14
-1.894671347816902,0.2,0.14
-4.325451959482228,0.2,0.18
-7.971779418926912,0.2,0.21
-2.421402528048695,0.2,0.14
-4.706954964997336,0.2,0.19
-2.255640260138156,0.2,0.15
-5.4543920133576655,0.2,0.2
-3.7631903733982153,0.2,0.25
-0.6104843053355843,0.2,0.14
-0.404508601887511,0.2,0.15
-0.5045446432105595,0.2,0.14
-0.2532617820647498,0.2,0.14
-0.2825216198459201,0.2,0.14
-0.37041356388776703,0.2,0.15
-0.7869845514299247,0.2,0.17
-0.27925346243671534,0.2,0.14
-0.266528879401399,0.2,0.14
-1.772802638453566,0.2,0.34
-2.7513053855798963,0.2,0.34
-1.3537715806898245,0.2,0.37
-0.350819434984108,0.2,0.15
-0.31802968359956885,0.2,0.14
-0.31987653585372383,0.2,0.14
-0.34130448250334033,0.2,0.15
-0.4368802927469495,0.2,0.14
-0.29622024623846027,0.2,0.14
-1.2880318109511093,0.2,0.17
-0.2825581562632371,0.2,0.14
-0.2536713639068192,0.2,0.14
-0.5337864289099633,0.2,0.15
-0.9873975563985138,0.2,0.2
-1.4932696792963613,0.2,0.28
-0.24715844881463284,0.2,0.14
-0.1455343225522364,0.2,0.14
-0.2246202808688986,0.2,0.14
-0.161110054204022,0.2,0.15
-0.2281366828803883,0.2,0.14
-0.14324131487481756,0.2,0.14
-0.22634971736142076,0.2,0.15
-0.793499360112756,0.2,0.17
-0.1363625124332432,0.2,0.14
-0.10869775963925081,0.2,0.14
-0.2737180019050319,0.2,0.16
-0.25215115357736045,0.2,0.17
-0.1607461006642199,0.2,0.14
-0.13944481614912901,0.2,0.14
-0.13744162904230922,0.2,0.15
-0.15543737821016587,0.2,0.14
-0.19274175116224734,0.2,0.14
-0.1539674961412432,0.2,0.15
-0.1483113727196247,0.2,0.14
-1.08298249525973,0.2,0.17
-0.1205197843854542,0.2,0.14
-0.07725580048343447,0.2,0.14
-0.5644217353218024,0.2,0.21
-0.8210704310778195,0.2,0.23
-0.0565157060655581,0.2,0.14
-0.1085546582327414,0.2,0.14
-0.08621774231866923,0.2,0.15
-0.05763207986663764,0.2,0.14
-0.04027269265395509,0.2,0.14
-0.07272809034444241,0.2,0.14
-0.05322851488268295,0.2,0.15
-0.06664450630050253,0.2,0.14
-0.7861192530624356,0.2,0.17
-0.0504850004348072,0.2,0.14
-0.07923368051315813,0.2,0.14
-0.4470987970218135,0.2,0.21
-0.8106723595539967,0.2,0.33
-0.08291394327930536,0.2,0.16
-0.10205493818781652,0.2,0.14
-0.12959993453871246,0.2,0.14
-0.232853445412357,0.2,0.14
-0.09943260001358743,0.2,0.15
-0.27033768511425094,0.2,0.15
-0.17850207309565527,0.2,0.14
-2.004514370924042,0.2,0.19
-0.19119876901457383,0.2,0.14
-0.13796179236814046,0.2,0.14
-0.5207679817802877,0.2,0.18
-0.5651312587959043,0.2,0.18
-0.8333209616680783,0.2,0.2
-0.6772852858137455,0.2,0.25
-0.22724078952807683,0.2,0.14
-0.3335856989300432,0.2,0.15
-0.15777715757873736,0.2,0.14
-0.07617479292872531,0.2,0.14
-0.08808391066674713,0.2,0.15
-0.1394590865499847,0.2,0.14
-1.0509915269882173,0.2,0.17
-0.08509507085938695,0.2,0.14
-0.21603010126356154,0.2,0.14
-1.3628377646484502,0.2,0.35
-0.7158625956490623,0.2,0.28
-0.11623318730359498,0.2,0.14
-0.061631537154896214,0.2,0.14
-0.04837607687732533,0.2,0.15
-0.16326272621397694,0.2,0.14
-0.13352342150939714,0.2,0.14
-0.09155125032600889,0.2,0.14
-0.11452215505837447,0.2,0.15
-0.23271799417602,0.2,0.17
-0.10564882388523884,0.2,0.14
-0.04919611947246662,0.2,0.14
-0.7604910938244008,0.2,0.26
-1.0379896122513452,0.2,0.31
-0.11592541552722813,0.2,0.14
-0.1316542419908963,0.2,0.14
-0.03983950466831802,0.2,0.15
-0.1440593004438594,0.2,0.14
-0.10048083378529925,0.2,0.14
-0.13156008636897204,0.2,0.15
-0.12615111615008387,0.2,0.14
-0.09836907833249037,0.2,0.14
-0.7947309778537769,0.2,0.17
-0.06386267644069385,0.2,0.14
-0.11123765455035171,0.2,0.14
-0.9479989496966417,0.2,0.36
-0.5753399834460724,0.2,0.21
-0.04805173820419388,0.2,0.14
-0.09281577696660927,0.2,0.14
-0.05777875425784956,0.2,0.15
-0.09882338897276807,0.2,0.14
-0.14112090840061678,0.2,0.14
-0.09009284216666062,0.2,0.14
-0.05164157410294305,0.2,0.15
-0.44074499401719036,0.2,0.18
-0.08363819225980697,0.2,0.14
-0.06704003666118606,0.2,0.14
-0.5084509825561833,0.2,0.26
-0.7472388045923677,0.2,0.29
-0.11884362026886872,0.2,0.14
-0.17081693118757366,0.2,0.14
-0.1158053371047669,0.2,0.15
-0.09284126058328761,0.2,0.14
-0.14502597612599236,0.2,0.14
-0.077647828235328,0.2,0.14
-0.041274150779372985,0.2,0.15
-0.06101148206805502,0.2,0.14
-0.862228779886157,0.2,0.17
-0.03746011232007118,0.2,0.14
-0.04777674862880288,0.2,0.14
-0.20389803363776127,0.2,0.24
-0.039462055624696984,0.2,0.14
-0.035888967168437966,0.2,0.14
-0.034337021549910154,0.2,0.15
-0.03618221511110916,0.2,0.14
-0.037596500600651644,0.2,0.14
-0.06212189844660856,0.2,0.15
-0.05684208034575325,0.2,0.14
-0.024452020615774655,0.2,0.14
-0.29133638616215973,0.2,0.17
-0.04348049613806306,0.2,0.14
-0.03797312904130319,0.2,0.14
-0.4552230728972249,0.2,0.32
-0.8064463203562215,0.2,0.34
-0.08499004761919748,0.2,0.15
-0.06676362366151024,0.2,0.14
-0.08415598170166971,0.2,0.14
-0.04034633088130579,0.2,0.15
-0.04103636904080254,0.2,0.14
-0.03976606925255781,0.2,0.14
-0.05660320309957729,0.2,0.14
-0.0525880190515781,0.2,0.15
-0.08088599758602345,0.2,0.17
-0.037361417076924044,0.2,0.14
-0.014458245367592814,0.2,0.14
-0.4353775605984445,0.2,0.25
-0.4690208931050308,0.2,0.28
-0.05908906796677105,0.2,0.14
-0.06486640665535129,0.2,0.14
-0.06023562939605465,0.2,0.15
-0.050641773673227024,0.2,0.14
-0.024190317513507673,0.2,0.14
-0.035762570795480654,0.2,0.14
-0.03715581548031284,0.2,0.15
-0.6029075935830747,0.2,0.17
-0.04829925927445136,0.2,0.14
-0.05714883940586787,0.2,0.14
-0.5583905329053522,0.2,0.26
-0.6653806094440888,0.2,0.58
-0.5586482655226496,0.2,0.34
-0.048169536686676166,0.2,0.14
-0.04399137984590665,0.2,0.15
-0.054764371797448676,0.2,0.14
-0.04415267670465247,0.2,0.14
-0.060849069387829004,0.2,0.14
-0.07188353337685614,0.2,0.15
-0.08031635780797647,0.2,0.14
-1.0733860513113072,0.2,0.17
-0.044597472864809744,0.2,0.14
-0.09415744486801672,0.2,0.14
-1.337690228037261,0.2,0.31
-0.41639046228333126,0.2,0.28
-0.08072400441278733,0.2,0.14
-0.10818715417930176,0.2,0.15
-0.0840287633716879,0.2,0.14
-0.02617343354044753,0.2,0.14
-0.08802501970935589,0.2,0.14
-0.05935108924476177,0.2,0.15
-0.06033673365690897,0.2,0.14
-0.7823020639864426,0.2,0.17
-0.05296383227882035,0.2,0.14
-0.08357606594811857,0.2,0.14
-0.18672753199690664,0.2,0.19
-0.5992362609017129,0.2,0.23
-0.08015518234624165,0.2,0.16
-0.04620588662168549,0.2,0.14
-0.06675304820406824,0.2,0.15
-0.021745023983695863,0.2,0.14
-0.04482125851689704,0.2,0.14
-0.06379114098375477,0.2,0.15
-0.03360509946107775,0.2,0.14
-0.053879000240763204,0.2,0.14
-0.5749461977329667,0.2,0.17
-0.051539310077516304,0.2,0.14
-0.0898554954897665,0.2,0.14
-0.22579624762049202,0.2,0.25
-0.07095186503681349,0.2,0.14
-0.08707986558225392,0.2,0.14
-0.06297088174637874,0.2,0.15
-0.0382551393333305,0.2,0.14
-0.05755549330107481,0.2,0.14
-0.03998090797359568,0.2,0.15
-0.07345502995461281,0.2,0.14
-0.056142983811911976,0.2,0.14
-0.3121392346848454,0.2,0.23
-0.10745707092373444,0.2,0.15
-0.13070862330985053,0.2,0.14
-0.3275194634137665,0.2,0.19
-0.1668064998730824,0.2,0.17
-0.4152806826084278,0.2,0.26
-0.34899069592715515,0.2,0.21
-0.0723049719490678,0.2,0.16
-0.09668115815584204,0.2,0.14
-0.08856943766202582,0.2,0.14
-0.0814941212674871,0.2,0.14
-0.08021265121600536,0.2,0.15
-0.09449370134181838,0.2,0.14
-1.039193269915327,0.2,0.17
-0.03816285721303872,0.2,0.14
-0.04720791546010443,0.2,0.14
-0.20931392460404594,0.2,0.25
-0.25063057108156306,0.2,0.27
-0.2610164930310513,0.2,0.19
-0.23326900817789153,0.2,0.27
-0.10042170109337982,0.2,0.18
-0.037114993648019956,0.2,0.15
-0.03439205404206023,0.2,0.14
-0.03750141703102698,0.2,0.14
-0.0182659421510818,0.2,0.14
-0.4681251380564139,0.2,0.18
-0.09051467353813743,0.2,0.17
-0.08800496123847155,0.2,0.14
-0.22414905904755986,0.2,0.33
-0.16051937446669043,0.2,0.22
-0.2623766687531783,0.2,0.39
-0.1939253256063302,0.2,0.21
-0.18201846636971547,0.2,0.18
-0.11459279172675034,0.2,0.15
-0.09429068771520076,0.2,0.15
-0.15835100450743977,0.2,0.15
-0.14222833141047622,0.2,0.17
-0.141167260980869,0.2,0.15
-0.7961111745117224,0.2,0.17
-0.029121007841166023,0.2,0.14
-0.04375918420675702,0.2,0.14
-0.39706011909575073,0.2,0.37
-0.5569480922450383,0.2,0.44
-0.04544558162976914,0.2,0.14
-0.03826490175645938,0.2,0.15
-0.03940395425363655,0.2,0.14
-0.016311261784444447,0.2,0.14
-0.027833190342154982,0.2,0.14
-0.03848584991854285,0.2,0.15
-0.023297745875932196,0.2,0.14
-0.3357881842631995,0.2,0.17
-0.04802490182904636,0.2,0.14
-0.039908734268886116,0.2,0.14
-0.1528810015105925,0.2,0.2
-0.1493716695002296,0.2,0.19
-0.03503421549985989,0.2,0.14
-0.01995445018498039,0.2,0.14
-0.029642598775561642,0.2,0.15
-0.04337143317532427,0.2,0.14
-0.04908972508495341,0.2,0.14
-0.051477867923054366,0.2,0.15
-0.040908466868276705,0.2,0.14
-0.04314528745473381,0.2,0.14
-0.18071559033756432,0.2,0.17
-0.023538095827471205,0.2,0.14
-0.08178782323042057,0.2,0.14
-0.34472336093279843,0.2,0.23
-0.5463293181895078,0.2,0.49
-0.03410019782503661,0.2,0.16
-0.02288715743827969,0.2,0.14
-0.052305995837237156,0.2,0.15
-0.03719802549477368,0.2,0.14
-0.042440251669212385,0.2,0.14
-0.02625318432174416,0.2,0.15
-0.04633433261957608,0.2,0.14
-0.44875089302510524,0.2,0.17
-0.02216541797159027,0.2,0.14
-0.024828161387279106,0.2,0.14
-0.032046646903083995,0.2,0.15
-0.5822819519359311,0.2,0.31
-0.11659801455555424,0.2,0.23
-0.029602117752617233,0.2,0.14
-0.03076488012110973,0.2,0.14
-0.026754431470839262,0.2,0.15
-0.03083530818657682,0.2,0.14
-0.02435506709437192,0.2,0.14
-0.01861991942493674,0.2,0.14
-0.02787582651300359,0.2,0.15
-0.4693030424503676,0.2,0.17
-0.03386212973625998,0.2,0.14
-0.02462309300661123,0.2,0.14
-0.1477453478426619,0.2,0.24
-0.034591641908910696,0.2,0.15
-0.0354578972006185,0.2,0.14
-0.03647340245334249,0.2,0.14
-0.04248699742755542,0.2,0.14
-0.019903980622907904,0.2,0.15
-0.0485142621101882,0.2,0.14
-0.039830123833711394,0.2,0.14
-0.03308937156552288,0.2,0.15
-0.053549425303233256,0.2,0.17
-0.016113685142496944,0.2,0.14
-0.026216683139953366,0.2,0.14
-0.23412331254988433,0.2,0.23
-0.3684380280422028,0.2,0.35
-0.22755616404468393,0.2,0.27
-0.038921526025964714,0.2,0.14
-0.02030699959090376,0.2,0.15
-0.030818217335881717,0.2,0.14
-0.030452756169158213,0.2,0.14
-0.03170236568618491,0.2,0.14
-0.025695192343109397,0.2,0.15
-0.02324106820206778,0.2,0.14
-0.1324868399976289,0.2,0.17
-0.04592837984293654,0.2,0.14
-0.027713233288580746,0.2,0.14
-0.4165775790317151,0.2,0.39
-0.39335876433205014,0.2,0.25
-0.08191499952393509,0.2,0.16
-0.02896586801606969,0.2,0.15
-0.01834146044983498,0.2,0.14
-0.025756862995833445,0.2,0.14
-0.025807355272447156,0.2,0.14
-0.017928191247513263,0.2,0.15
-0.022925581317003625,0.2,0.14
-0.2788152611268443,0.2,0.17
-0.05201445689887581,0.2,0.14
-0.04874023700273031,0.2,0.14
-0.09968263662854666,0.2,0.19
-0.0963504155569495,0.2,0.17
-0.24969443550566311,0.2,0.26
-0.05852213702465965,0.2,0.14
-0.05182469299632277,0.2,0.15
-0.02926406772849132,0.2,0.14
-0.036087989885736964,0.2,0.14
-0.03676905185449922,0.2,0.14
-0.030505905496854918,0.2,0.15
-0.03370791526072198,0.2,0.14
-0.3521242380145742,0.2,0.17
-0.0172150555387851,0.2,0.14
-0.02295716125342082,0.2,0.14
-0.23439978769861275,0.2,0.22
-0.28539849620187285,0.2,0.64
-0.11698081434149607,0.2,0.23
-0.03405199027042566,0.2,0.14
-0.03983678252820393,0.2,0.14
-0.01777486808057202,0.2,0.14
-0.020390987998136524,0.2,0.15
-0.020436018353544156,0.2,0.14
-0.012266884868020049,0.2,0.14
-0.26761048336149296,0.2,0.17
-0.01707709765405097,0.2,0.14
-0.009844313293410314,0.2,0.14
-0.2414714513078438,0.2,0.27
-0.05880884326250796,0.2,0.15
-0.023855012903376983,0.2,0.14
-0.023515252176247503,0.2,0.15
-0.017290375320512495,0.2,0.14
-0.020843758834211995,0.2,0.14
-0.02290291943312104,0.2,0.15
-0.024281271423600433,0.2,0.14
-0.016569457285006976,0.2,0.14
-0.01732338264336892,0.2,0.14
-0.0353344945063354,0.2,0.18
-0.0302423967966304,0.2,0.14
-0.026447066991075633,0.2,0.14
-0.2999228662442374,0.2,0.34
-0.10083696193838665,0.2,0.23
-0.012516266707100694,0.2,0.14
-0.018360008913000662,0.2,0.15
-0.02715341737206471,0.2,0.14
-0.02242971774489182,0.2,0.14
-0.02886815867241444,0.2,0.14
-0.01587312432664867,0.2,0.15
-0.03742390435670083,0.2,0.14
-0.25878431222198,0.2,0.17
-0.03624079497957916,0.2,0.14
-0.014918889254494458,0.2,0.14
-0.22481466272148745,0.2,0.28
-0.36388376303159037,0.2,0.3
-0.026056307513873406,0.2,0.14
-0.018138543153066292,0.2,0.14
-0.02335202031828811,0.2,0.14
-0.029996812967804612,0.2,0.15
-0.03117576837013811,0.2,0.14
-0.014879259602095,0.2,0.14
-0.0285091735244634,0.2,0.15
-0.01774483116261013,0.2,0.14
-0.2605980647310492,0.2,0.17
-0.03057570847411052,0.2,0.14
-0.036201938082277,0.2,0.14
-0.20714982900256626,0.2,0.25
-0.3177615784634178,0.2,0.28
-0.04213459113089194,0.2,0.14
-0.030445426601683596,0.2,0.14
-0.018775398246845057,0.2,0.14
-0.028958270887509616,0.2,0.15
-0.024652728679667828,0.2,0.14
-0.0287283671160415,0.2,0.14
-0.03954532902385435,0.2,0.15
-0.13307742254200589,0.2,0.17
-0.015054101594892134,0.2,0.14
-0.013374201303203482,0.2,0.14
-0.22513575056726837,0.2,0.25
-0.28430044278909344,0.2,0.56
-0.2503789214984104,0.2,0.23
-0.014583229790344994,0.2,0.15
-0.015517692254972576,0.2,0.14
-0.021684353971439935,0.2,0.14
-0.015628748380368363,0.2,0.15
-0.018972088324840434,0.2,0.14
-0.02462957483004476,0.2,0.14
-0.021634391950730265,0.2,0.14
-0.4040799686047905,0.2,0.17
-0.027320256960494633,0.2,0.14
-0.021966943537158255,0.2,0.14
-0.07735276020599861,0.2,0.17
-0.08227188415639955,0.2,0.19
-0.02590728776047909,0.2,0.14
-0.020876009156533728,0.2,0.14
-0.020709842249971938,0.2,0.15
-0.027723460723331355,0.2,0.14
-0.015594848451021475,0.2,0.14
-0.025286883780260786,0.2,0.14
-0.021975501566875798,0.2,0.15
-0.05715718587656608,0.2,0.19
-0.1750747024797425,0.2,0.27
-0.034561667526703914,0.2,0.15
-0.16219822629329148,0.2,0.28
-0.08567403672225399,0.2,0.15
-0.17766697145210109,0.2,0.24
-0.1732715502152961,0.2,0.35
-0.21211944629099388,0.2,0.49
-0.11030823416002106,0.2,0.16
-0.05804757847941429,0.2,0.14
-0.04344879846766104,0.2,0.14
-0.06253206862754308,0.2,0.15
-0.06319317924079536,0.2,0.14
-0.5931774796110476,0.2,0.19
-0.02381421059261081,0.2,0.14
-0.0714881415812767,0.2,0.14
-0.08472954546801598,0.2,0.14
-0.10846961109738669,0.2,0.16
-0.03891414451232133,0.2,0.14
-0.03008702730740792,0.2,0.14
-0.0337458015343395,0.2,0.14
-0.03719130943145163,0.2,0.15
-0.03036463144139572,0.2,0.14
-0.028888061072214952,0.2,0.14
-0.04149651321565284,0.2,0.15
-0.06475374632713139,0.2,0.17
-0.023452717033759153,0.2,0.14
-0.02098434390918941,0.2,0.14
-0.2868603248978669,0.2,0.22
-0.34698938212385116,0.2,0.39
-0.02653849990830232,0.2,0.15
-0.019921628127964785,0.2,0.15
-0.016934652702705215,0.2,0.14
-0.025817101601031383,0.2,0.14
-0.022635514189137975,0.2,0.14
-0.014709737565636675,0.2,0.15
-0.012296537966109139,0.2,0.14
-0.02978562491713369,0.2,0.14
-0.20856823397389765,0.2,0.17
-0.03787074358736413,0.2,0.14
-0.029639136210660392,0.2,0.14
-0.12432606862621925,0.2,0.18
-0.22558865283969157,0.2,0.37
-0.35759983891350616,0.2,0.48
-0.22080903082601142,0.2,0.36
-0.22284955500984713,0.2,0.38
-0.07346023574822254,0.2,0.18
-0.04128280427038631,0.2,0.14
-0.04338118456512142,0.2,0.14
-0.051628479559852586,0.2,0.15
-0.6113720614904127,0.2,0.17
-0.04134123048094478,0.2,0.14
-0.04088174541206752,0.2,0.14
-0.2371743990912258,0.2,0.28
-0.28256573107761634,0.2,0.25
-0.3163061459119168,0.2,0.22
-0.12068215106011737,0.2,0.18
-0.0757622891660514,0.2,0.14
-0.05332052832134191,0.2,0.15
-0.08177863354993906,0.2,0.14
-0.08421049829584899,0.2,0.14
-0.05639292968107186,0.2,0.15
-0.0441087015438924,0.2,0.14
-0.18812512549251761,0.2,0.17
-0.025899040964280876,0.2,0.14
-0.21530717537849967,0.2,0.16
-0.3242171659430485,0.2,0.46
-0.10122054530193492,0.2,0.16
-0.04290646137417471,0.2,0.15
-0.03127200121197667,0.2,0.14
-0.03713831336668357,0.2,0.14
-0.03751786270964444,0.2,0.15
-0.02731277939527306,0.2,0.14
-0.03569328893875325,0.2,0.14
-0.03993826592304642,0.2,0.14
-0.4555778227701068,0.2,0.18
-0.06494139468186319,0.2,0.14
-0.08772920782285012,0.2,0.14
-0.28844205837860765,0.2,0.31
-0.42038826246015387,0.2,0.42
-0.2510919306325479,0.2,0.29
-0.15744357598387493,0.2,0.24
-0.049047525214514914,0.2,0.14
-0.08113949907725114,0.2,0.14
-0.05578206068275525,0.2,0.15
-0.042374568340265234,0.2,0.14
-0.06314096508447718,0.2,0.14
-0.07647651391082551,0.2,0.15
-0.1619468180079691,0.2,0.17
-0.05152815691408164,0.2,0.14
-0.07274322575058757,0.2,0.14
-0.5070836356064902,0.2,0.52
-0.42789001460542364,0.2,0.47
-0.037468996825717936,0.2,0.15
-0.05751127190577555,0.2,0.14
-0.11363812142790587,0.2,0.15
-0.10200554655432381,0.2,0.14
-0.06770630047546862,0.2,0.15
-0.10972446793021728,0.2,0.14
-0.05457427332739694,0.2,0.14
-0.6520362318425051,0.2,0.18
-0.06393500483956975,0.2,0.15
-0.04861950904031507,0.2,0.14
-0.08541804214843161,0.2,0.14
-0.13683356293957277,0.2,0.15
-0.09911767953950408,0.2,0.17
-0.04531652249325966,0.2,0.15
-0.14006194265463448,0.2,0.15
-0.059659548331180104,0.2,0.14
-0.14157676181284187,0.2,0.15
-0.10232170040140053,0.2,0.14
-0.04771274381218331,0.2,0.15
-0.10233017503859443,0.2,0.15
-0.04760570763698066,0.2,0.17
-0.030384574782858435,0.2,0.14
-0.05991468574346836,0.2,0.14
-0.48018711923434515,0.2,0.23
-0.6361646707771177,0.2,0.29
-0.014476796256588698,0.2,0.15
-0.023825018610948927,0.2,0.14
-0.052826979826203754,0.2,0.14
-0.04782092913521594,0.2,0.14
-0.03570466772013976,0.2,0.15
-0.03318298013467233,0.2,0.14
-0.03763636156257239,0.2,0.14
-0.4870489112649428,0.2,0.17
-0.07817402894634568,0.2,0.14
-0.056111586238301925,0.2,0.14
-0.2686465822956437,0.2,0.23
-0.46021804800507415,0.2,0.33
-0.05431442555365171,0.2,0.15
-0.06742175178775851,0.2,0.14
-0.03688600694563175,0.2,0.14
-0.07907886475485165,0.2,0.15
-0.0404531134181479,0.2,0.14
-0.06430010111505181,0.2,0.14
-0.08449409555038097,0.2,0.14
-0.11977621444225772,0.2,0.15
-0.5769242821719655,0.2,0.17
-0.058553242864987205,0.2,0.14
-0.0408889549369537,0.2,0.14
-0.020097563498284846,0.2,0.15
-0.544680460662105,0.2,0.23
-0.4865181804478536,0.2,0.28
-0.045874127010985664,0.2,0.14
-0.031400227515086455,0.2,0.14
-0.044514094152521964,0.2,0.15
-0.026526977216512777,0.2,0.14
-0.022529007461433236,0.2,0.14
-0.041255600320642835,0.2,0.14
-0.5045961921302892,0.2,0.18
-0.045058018659701216,0.2,0.14
-0.04569060512661668,0.2,0.14
-0.6452698041004161,0.2,0.28
-0.1505734596854164,0.2,0.15
-0.044829649936367615,0.2,0.14
-0.04846932830881488,0.2,0.15
-0.05208060273029785,0.2,0.14
-0.061625620818627755,0.2,0.14
-0.06939706795249699,0.2,0.15
-0.10055163441511437,0.2,0.15
-0.0436375559704317,0.2,0.14
-0.040420747044134966,0.2,0.14
-0.19092343907917966,0.2,0.17
-0.043641196258273084,0.2,0.14
-0.02960690012531017,0.2,0.14
-0.7630886287186488,0.2,0.49
-0.3469731870639813,0.2,0.23
-0.49657544858216546,0.2,0.31
-0.06021352138653619,0.2,0.15
-0.0607700674829654,0.2,0.14
-0.03630800980260114,0.2,0.14
-0.05225426704235173,0.2,0.14
-0.051980802938079065,0.2,0.15
-0.12251470114649858,0.2,0.14
-0.981836515034705,0.2,0.17
-0.0493089920621608,0.2,0.14
-0.06571132632262366,0.2,0.14
-0.5325912600162156,0.2,0.25
-0.8155511354122023,0.2,0.29
-0.03933718030855065,0.2,0.14
-0.061058407464574437,0.2,0.15
-0.05484422606882566,0.2,0.14
-0.037595146821282795,0.2,0.14
-0.04352254148510843,0.2,0.14
-0.03647621781012671,0.2,0.15
-0.04611178095548948,0.2,0.14
-0.06250700516795939,0.2,0.14
-0.7234879514590443,0.2,0.29
-0.05832158688036884,0.2,0.15
-0.1284467768951341,0.2,0.14
-0.3680560328604139,0.2,0.33
-0.3716162775796847,0.2,0.34
-0.26208706538694587,0.2,0.29
-0.13654520351408583,0.2,0.16
-0.10773959963934573,0.2,0.14
-0.1534496597548506,0.2,0.17
-0.13086824257525562,0.2,0.14
-0.03794183549419262,0.2,0.14
-0.06587136089423463,0.2,0.15
-0.4120455901974164,0.2,0.17
-0.021223073522921215,0.2,0.14
-0.03859906173415088,0.2,0.14
-1.1016416233437407,0.2,0.28
-0.26016105496883646,0.2,0.22
-0.06763100596349653,0.2,0.14
-0.03244470229982067,0.2,0.14
-0.03712714244425308,0.2,0.15
-0.030830151551664114,0.2,0.14
-0.05956274016520969,0.2,0.14
-0.02640704408916544,0.2,0.14
-0.052899015077192225,0.2,0.15
-0.026007050417716494,0.2,0.14
-0.20611306979386898,0.2,0.17
-0.04689282218310554,0.2,0.14
-0.05753972584287531,0.2,0.14
-0.4495063254093029,0.2,0.26
-0.7459727447296077,0.2,0.3
-0.098897973097231,0.2,0.14
-0.03335651584281213,0.2,0.14
-0.055965232571079396,0.2,0.15
-0.030759113372018972,0.2,0.14
-0.045265397744594316,0.2,0.14
-0.04751126549588766,0.2,0.15
-0.0450596661279657,0.2,0.14
-0.2224673509868412,0.2,0.17
-0.062229037197529286,0.2,0.14
-0.036649844774985334,0.2,0.14
-0.03221984583308879,0.2,0.15
-0.9613940129517308,0.2,0.36
-0.42508498520406196,0.2,0.28
-0.033859000387124985,0.2,0.14
-0.01657641976264742,0.2,0.14
-0.02485541691186835,0.2,0.14
-0.05186144197003084,0.2,0.15
-0.03711466209479108,0.2,0.14
-0.07424798267304798,0.2,0.14
-0.08343856666378588,0.2,0.15
-0.09663071991513553,0.2,0.17
-0.040075049751801615,0.2,0.14
-0.06267535486659326,0.2,0.14
-0.49305464253813414,0.2,0.32
-0.429193687638212,0.2,0.3
-0.5764219077841163,0.2,0.23
-0.062000127733906105,0.2,0.14
-0.13762431803723105,0.2,0.17
-0.06390964393357047,0.2,0.14
-0.04334725725447482,0.2,0.14
-0.10418567854440228,0.2,0.15
-0.04792679178277133,0.2,0.14
-0.7978731664224754,0.2,0.17
-0.04969537076019227,0.2,0.14
-0.060728417524681944,0.2,0.14
-0.6903795984911013,0.2,0.28
-0.6466495465210589,0.2,0.66
-0.06201796902733146,0.2,0.14
-0.05888619969466311,0.2,0.14
-0.08185300863189549,0.2,0.15
-0.05588931980098643,0.2,0.14
-0.05045616057905589,0.2,0.14
-0.08317869044251884,0.2,0.14
-0.08770172662545997,0.2,0.15
-0.07120372211849686,0.2,0.14
-0.639263921143188,0.2,0.18
-0.09868212805690182,0.2,0.14
-0.08821340263248206,0.2,0.14
-0.77144947650856,0.2,0.4
-0.4105531769680339,0.2,0.28
-0.09709167620930884,0.2,0.15
-0.05971617071906101,0.2,0.14
-0.055050865489066986,0.2,0.14
-0.06901570445898361,0.2,0.14
-0.05457608135689049,0.2,0.15
-0.07492873403581944,0.2,0.14
-0.08084007070865479,0.2,0.14
-0.11801388890776879,0.2,0.17
-0.04973324626512092,0.2,0.14
-0.06192292483224219,0.2,0.14
-0.22773002069204298,0.2,0.19
-0.5898051804972446,0.2,0.28
-0.10953786388787773,0.2,0.15
-0.11233257710478992,0.2,0.15
-0.06776436333650483,0.2,0.14
-0.0631617771865694,0.2,0.14
-0.08574820853213799,0.2,0.15
-0.06569899279726767,0.2,0.14
-0.05708974659117606,0.2,0.14
-0.07140759009552343,0.2,0.14
-0.6256823825236096,0.2,0.17
-0.0540350124009082,0.2,0.14
-0.08952884731073768,0.2,0.14
-0.8736537229423333,0.2,0.37
-0.5061948150441398,0.2,0.42
-0.06716428466694575,0.2,0.14
-0.053176938009696285,0.2,0.15
-0.038340825191499575,0.2,0.14
-0.04325366287970669,0.2,0.14
-0.04158693888099537,0.2,0.14
-0.04018605504337172,0.2,0.15
-0.05802221448939174,0.2,0.14
-0.7769030698077023,0.2,0.17
-0.05250111104032362,0.2,0.14
-0.06317898457871024,0.2,0.14
-0.2657371234938622,0.2,0.19
-0.18752319176356794,0.2,0.17
-0.08763670709440238,0.2,0.14
-0.07939231573023492,0.2,0.14
-0.05860959452112303,0.2,0.15
-0.08410465275731113,0.2,0.14
-0.06869110340333044,0.2,0.14
-0.05522343450957969,0.2,0.14
-0.07729706677267112,0.2,0.15
-0.06680830725360266,0.2,0.14
-0.07076192288642932,0.2,0.17
-0.031093709610418036,0.2,0.14
-0.0333771757945829,0.2,0.14
-0.9470739201461992,0.2,0.36
-0.0456637450665041,0.2,0.15
-0.05475476439064205,0.2,0.14
-0.04496224321862776,0.2,0.15
-0.09632626074702523,0.2,0.14
-0.04655059374941685,0.2,0.14
-0.07707688961737309,0.2,0.14
-0.06792389402105285,0.2,0.15
-0.05610348123083609,0.2,0.14
-0.8137173451875107,0.2,0.17
-0.09440749533651296,0.2,0.14
-0.0710812120250268,0.2,0.14
-0.0872935943979512,0.2,0.15
-1.0353990300254938,0.2,0.29
-0.5404163760656343,0.2,0.33
-0.1036886224267848,0.2,0.15
-0.05809557729091584,0.2,0.14
-0.038046944167606164,0.2,0.14
-0.04440761759279254,0.2,0.15
-0.05433923549783299,0.2,0.14
-0.07886182352259305,0.2,0.14
-0.07560731160745199,0.2,0.14
-0.5852522806313049,0.2,0.17
-0.05237806577305519,0.2,0.14
-0.026357982213000137,0.2,0.14
-0.9809211560744043,0.2,0.35
-0.25085665450948996,0.2,0.21
-0.06693451092838339,0.2,0.14
-0.057110795292165006,0.2,0.15
-0.03749196269854094,0.2,0.14
-0.03623723862373973,0.2,0.14
-0.05669530627607096,0.2,0.14
-0.05516780713235774,0.2,0.15
-0.02330974512949277,0.2,0.14
-0.30170867484352465,0.2,0.17
-0.05752461704695993,0.2,0.14
-0.1165793657415204,0.2,0.14
-0.08642075433726978,0.2,0.15
-0.3351308170265155,0.2,0.23
-0.2707921653242683,0.2,0.18
-0.09612212596561996,0.2,0.15
-0.08584683115086823,0.2,0.14
-0.11178275587298268,0.2,0.14
-0.06754474425692482,0.2,0.14
-0.09863189842546675,0.2,0.15
-0.11409353697587638,0.2,0.14
-0.08798251570188868,0.2,0.14
-0.08754093805235581,0.2,0.18
-0.32753788152471913,0.2,0.19
-0.1879456534498736,0.2,0.18
-0.5299496072901213,0.2,0.36
-0.8061424950525058,0.2,0.31
-0.17288427481993582,0.2,0.16
-0.3617655741261803,0.2,0.23
-0.16843863070565468,0.2,0.15
-0.078281020941936,0.2,0.14
-0.10658978517687065,0.2,0.14
-0.09216996523316044,0.2,0.14
-0.08740530562234505,0.2,0.15
-1.0832276238446927,0.2,0.17
-0.07656828384092869,0.2,0.14
-0.06314622567390339,0.2,0.14
-0.15929932395824142,0.2,0.17
-0.2527628314199236,0.2,0.2
-0.06642207097966639,0.2,0.14
-0.07872696494070412,0.2,0.14
-0.04550291280522933,0.2,0.14
-0.07873478772480015,0.2,0.15
-0.05890694808834157,0.2,0.14
-0.0454770564193037,0.2,0.14
-0.07084202795039181,0.2,0.15
-0.0595289492706602,0.2,0.14
-0.2776705730491861,0.2,0.17
-0.057777204908150165,0.2,0.14
-0.058685646806282965,0.2,0.14
-0.40350915490098216,0.2,0.41
-0.4743245606001467,0.2,0.28
-0.07456513122472094,0.2,0.15
-0.052771986965381316,0.2,0.14
-0.06966264105246815,0.2,0.14
-0.030437685977546255,0.2,0.14
-0.04366615294904192,0.2,0.15
-0.0244541058448349,0.2,0.14
-0.06307784052304104,0.2,0.14
-0.07747716913507749,0.2,0.17
-0.0772375209119552,0.2,0.14
-0.07505619574207213,0.2,0.14
-0.13175721025347573,0.2,0.15
-0.33770881796688684,0.2,0.32
-0.19748941416995358,0.2,0.16
-0.12439855748415575,0.2,0.14
-0.1600323892767218,0.2,0.15
-0.12686657947295613,0.2,0.14
-0.12403667078170469,0.2,0.14
-0.05131401589824781,0.2,0.15
-0.06058168301386406,0.2,0.14
-0.04087026520822282,0.2,0.14
-0.41182856184509986,0.2,0.17
-0.0355473408371064,0.2,0.14
-0.041859900245908334,0.2,0.14
-0.616213626251994,0.2,0.23
-0.527862383827183,0.2,0.49
-0.15651585618541342,0.2,0.2
-0.05721911518018355,0.2,0.14
-0.03873765999209237,0.2,0.15
-0.051319103022012,0.2,0.14
-0.031017438111335616,0.2,0.14
-0.043893630077115706,0.2,0.14
-0.019096211210314514,0.2,0.15
-0.40316765144882766,0.2,0.17
-0.024596714272815273,0.2,0.14
-0.03441693494088785,0.2,0.14
-0.1389730773764868,0.2,0.18
-0.13508129388625587,0.2,0.18
-0.053728538608327776,0.2,0.14
-0.023458615783467602,0.2,0.14
-0.04593898288500875,0.2,0.14
-0.052265189143458984,0.2,0.15
-0.06857347602474793,0.2,0.14
-0.041074082338176825,0.2,0.14
-0.018346435259777978,0.2,0.15
-0.040700588544472595,0.2,0.14
-0.11030738366218157,0.2,0.17
-0.06401088472504318,0.2,0.14
-0.07180531401766944,0.2,0.14
-0.16318116971070842,0.2,0.17
-0.06886180931135077,0.2,0.15
-0.09950432423276549,0.2,0.14
-0.11662227817406964,0.2,0.16
-0.13570340794242255,0.2,0.17
-0.0884614231830337,0.2,0.14
-0.1075653434326927,0.2,0.14
-0.08948744433669174,0.2,0.15
-0.03415698584502341,0.2,0.14
-0.49826863788741604,0.2,0.18
-0.09016002426633445,0.2,0.14
-0.04121902364329506,0.2,0.14
-0.44527489824413885,0.2,0.3
-0.5627349494294135,0.2,0.28
-0.3008047527087471,0.2,0.19
-0.05608990241003471,0.2,0.15
-0.029469360890294994,0.2,0.14
-0.037499705041005985,0.2,0.14
-0.04520067863939311,0.2,0.14
-0.0497100417507243,0.2,0.15
-0.051592039009668626,0.2,0.14
-0.06905771899803945,0.2,0.14
-0.3646966468571354,0.2,0.28
-0.17548285006407152,0.2,0.16
-0.2342461168698979,0.2,0.15
-0.3449409754192114,0.2,0.25
-0.1281260968101153,0.2,0.14
-0.3502921605366531,0.2,0.49
-0.24000262426229194,0.2,0.29
-0.12109593677244433,0.2,0.14
-0.14815500800957104,0.2,0.16
-0.11822506157121404,0.2,0.17
-0.1700250456346433,0.2,0.17
-0.17537591098297162,0.2,0.16
-1.6972210705902588,0.2,0.18
-0.022789113958082526,0.2,0.14
-0.03827172814818346,0.2,0.14
-0.27204078019371586,0.2,0.4
-0.4147807504469067,0.2,0.35
-0.028130117280718882,0.2,0.15
-0.015699384985442936,0.2,0.14
-0.014363417712806152,0.2,0.14
-0.043902163292636354,0.2,0.15
-0.02148711582746574,0.2,0.14
-0.020286486921951227,0.2,0.14
-0.03342333161122932,0.2,0.14
-0.030182093245025885,0.2,0.15
-0.24943579396030985,0.2,0.17
-0.04102889537359385,0.2,0.14
-0.04027940529414147,0.2,0.14
-0.15547244830964901,0.2,0.26
-0.12932341636870393,0.2,0.19
-0.10482505083812654,0.2,0.18
-0.186784697194311,0.2,0.22
-0.08388002154229533,0.2,0.14
-0.09389543695769913,0.2,0.15
-0.059640656313448316,0.2,0.14
-0.059112083185885796,0.2,0.14
-0.06713140751372786,0.2,0.15
-0.14475590253033035,0.2,0.17
-0.0744154844944593,0.2,0.15
-0.03430846269547317,0.2,0.14
-0.10448572150483502,0.2,0.17
-0.12308011587433963,0.2,0.18
-0.09453285208694971,0.2,0.17
-0.19075788895577367,0.2,0.26
-0.19461890097648432,0.2,0.19
-0.07641693789394226,0.2,0.14
-0.08100687133045364,0.2,0.15
-0.07747071271226978,0.2,0.15
-0.08242422557455333,0.2,0.14
-0.05222248976238117,0.2,0.14
-0.11897494350984221,0.2,0.17
-0.02275192805200407,0.2,0.14
-0.01643529422482849,0.2,0.14
-0.35989085557061085,0.2,0.43
-0.39282527456879635,0.2,0.33
-0.031126705117463717,0.2,0.15
-0.024283215518468806,0.2,0.14
-0.01641370488832103,0.2,0.14
-0.014960644760120727,0.2,0.15
-0.02017317721044312,0.2,0.14
-0.03221481293485815,0.2,0.14
-0.02458480294935246,0.2,0.14
-0.15379138857862948,0.2,0.23
-0.03650020690679136,0.2,0.15
-0.03608725892579167,0.2,0.14
-0.14801677308096794,0.2,0.21
-0.03918723730429692,0.2,0.15
-0.15626447180061162,0.2,0.26
-0.19588649410283338,0.2,0.2
-0.04387691656045122,0.2,0.14
-0.04445052078812721,0.2,0.14
-0.049892889185440895,0.2,0.15
-0.043911183286798945,0.2,0.14
-0.027234154002317042,0.2,0.14
-0.06800315171097866,0.2,0.14
-0.117114019144854,0.2,0.17
-0.03734562532778408,0.2,0.14
-0.026080643630793703,0.2,0.14
-0.2460918015249262,0.2,0.25
-0.2645924513848742,0.2,0.38
-0.3372442222055111,0.2,0.3
-0.08617648408787665,0.2,0.21
-0.02333565238363789,0.2,0.14
-0.04773498914076691,0.2,0.14
-0.033138694709010964,0.2,0.14
-0.04027050455852849,0.2,0.15
-0.02664249632394013,0.2,0.14
-0.3110078161445134,0.2,0.17
-0.02444910332487029,0.2,0.14
-0.01887848727161385,0.2,0.14
-0.30293620494341306,0.2,0.3
-0.48523381903829355,0.2,0.37
-0.04328429636257294,0.2,0.14
-0.03077518752659438,0.2,0.14
-0.054219049513829456,0.2,0.15
-0.029952637636619626,0.2,0.14
-0.034946345435266875,0.2,0.14
-0.09548993567473374,0.2,0.15
-0.06951043124818175,0.2,0.15
-0.025694513854771447,0.2,0.14
-0.09219885961335426,0.2,0.17
-0.02631816291135151,0.2,0.14
-0.041529924037478384,0.2,0.14
-0.25432884487551954,0.2,0.3
-0.3783729038699721,0.2,0.29
-0.02063321862895386,0.2,0.14
-0.03111044662832164,0.2,0.15
-0.030570281295246436,0.2,0.14
-0.033808448870043945,0.2,0.14
-0.0280801459949103,0.2,0.15
-0.021316074993904335,0.2,0.14
-0.0342964269690987,0.2,0.14
-0.3093887417852512,0.2,0.17
-0.047007938050412895,0.2,0.14
-0.027294015897619945,0.2,0.14
-0.18971084819429612,0.2,0.3
-0.12760301953712114,0.2,0.23
-0.41438511121012206,0.2,0.3
-0.1691889104449198,0.2,0.2
-0.2679021024162559,0.2,0.31
-0.09491534821734782,0.2,0.19
-0.047779204100291316,0.2,0.14
-0.038302977049590174,0.2,0.15
-0.04491926498612195,0.2,0.14
-0.028618741343602788,0.2,0.14
-0.2533459651248599,0.2,0.17
-0.020815992206195767,0.2,0.14
-0.02111988507805004,0.2,0.14
-0.48929188152878744,0.2,0.34
-0.3058801926248297,0.2,0.57
-0.04121222775280016,0.2,0.14
-0.018039172316264836,0.2,0.14
-0.026398479609018057,0.2,0.15
-0.026418488324893113,0.2,0.14
-0.022934025132466406,0.2,0.14
-0.024026227076007548,0.2,0.14
-0.024202975736063753,0.2,0.15
-0.3959982949462626,0.2,0.17
-0.03663160613468996,0.2,0.14
-0.02200543308103632,0.2,0.14
-0.037326736324764055,0.2,0.15
-0.46424609783533205,0.2,0.41
-0.2990920534610109,0.2,0.22
-0.013924027346170494,0.2,0.14
-0.02941383766392694,0.2,0.15
-0.028664820708688355,0.2,0.14
-0.04353612293638987,0.2,0.14
-0.03955258011654255,0.2,0.14
-0.028283709047530046,0.2,0.15
-0.05523985342457304,0.2,0.14
-0.06840641164388885,0.2,0.17
-0.0454301369052784,0.2,0.14
-0.04087740773695602,0.2,0.14
-0.15600189008247603,0.2,0.25
-0.07891866126339868,0.2,0.14
-0.25399120789082247,0.2,0.19
-0.05740883982769511,0.2,0.15
-0.1982638543137955,0.2,0.19
-0.04708855569440122,0.2,0.15
-0.07156782383048008,0.2,0.14
-0.12672032284954232,0.2,0.18
-0.04742221183909027,0.2,0.14
-0.29042692961347144,0.2,0.17
-0.026432976195863604,0.2,0.14
-0.028351027263044455,0.2,0.14
-0.3318552827829491,0.2,0.23
-0.4530280865171233,0.2,0.53
-0.3298846780348474,0.2,0.35
-0.05384625911104328,0.2,0.15
-0.02772592347238331,0.2,0.14
-0.03505856923839615,0.2,0.14
-0.028248657915688043,0.2,0.15
-0.04904754826566004,0.2,0.14
-0.023692768382599247,0.2,0.14
-0.03713856292543888,0.2,0.14
-0.3153766149530365,0.2,0.18
-0.054605812618216176,0.2,0.14
-0.08575283586262407,0.2,0.14
-0.18130549292346973,0.2,0.24
-0.17454426597497152,0.2,0.18
-0.3133796504948061,0.2,0.25
-0.06122598552994521,0.2,0.16
-0.04286699455271074,0.2,0.14
-0.045435245910783274,0.2,0.15
-0.047760767611725985,0.2,0.14
-0.03876827465856627,0.2,0.14
-0.05500852237437791,0.2,0.15
-0.7268265076966528,0.2,0.17
-0.06513669860701653,0.2,0.14
-0.035235763478869336,0.2,0.14
-0.17646313130951022,0.2,0.28
-0.1464087473172851,0.2,0.23
-0.3592273957132424,0.2,0.44
-0.24414319342312066,0.2,0.35
-0.05542373580159818,0.2,0.15
-0.03118379003818382,0.2,0.14
-0.06560278630901475,0.2,0.14
-0.04229226757247395,0.2,0.15
-0.059694580529177796,0.2,0.14
-0.06660824966113278,0.2,0.14
-0.04997742218503199,0.2,0.17
-0.030044874744524764,0.2,0.14
-0.03451656952527477,0.2,0.14
-0.11059392537428618,0.2,0.16
-0.04776508866178661,0.2,0.15
-0.06682565590314207,0.2,0.14
-0.12211437784443842,0.2,0.18
-0.05822923628040046,0.2,0.16
-0.026630906866090046,0.2,0.14
-0.041720679530970896,0.2,0.14
-0.03816254019317118,0.2,0.14
-0.04481132504076779,0.2,0.15
-0.32740340751858976,0.2,0.17
-0.018006511044931124,0.2,0.14
-0.02846123748608279,0.2,0.14
-0.2753208779911066,0.2,0.22
-0.37424428621246825,0.2,0.36
-0.028769297593873686,0.2,0.15
-0.046496519011640085,0.2,0.14
-0.04346436922514747,0.2,0.14
-0.048310886596996575,0.2,0.14
-0.05611630907047381,0.2,0.15
-0.031763736090548306,0.2,0.14
-0.04804935400821629,0.2,0.14
-0.048936976052663644,0.2,0.15
-0.5326255570913664,0.2,0.2
-0.039299488085969905,0.2,0.15
-0.06296964373865366,0.2,0.14
-0.13012824947958615,0.2,0.17
-0.05053099671505411,0.2,0.15
-0.04716476076699443,0.2,0.14
-0.03468024716549615,0.2,0.14
-0.04544563014923849,0.2,0.15
-0.030086928631117445,0.2,0.14
-0.03543315552598546,0.2,0.14
-0.018719644808945876,0.2,0.15
-0.028806668753082725,0.2,0.14
-0.09985194496838215,0.2,0.17
-0.015785975952404364,0.2,0.14
-0.032285443926572545,0.2,0.14
-0.03808950902799643,0.2,0.15
-0.507051454403446,0.2,0.34
-0.29809511912720527,0.2,0.43
-0.036711220715250875,0.2,0.15
-0.039792404421935025,0.2,0.14
-0.02213062262763083,0.2,0.14
-0.015250407986703424,0.2,0.15
-0.038636505871651045,0.2,0.14
-0.043726007539055735,0.2,0.14
-0.029296225877920645,0.2,0.14
-0.46608538649930237,0.2,0.17
-0.060386665901522335,0.2,0.14
-0.05469813257850418,0.2,0.14
-0.21036710170106987,0.2,0.32
-0.2575389174032641,0.2,0.39
-0.24438013686220972,0.2,0.41
-0.24127892436279263,0.2,0.43
-0.0706222649459381,0.2,0.17
-0.03720406550627591,0.2,0.14
-0.038870205446428795,0.2,0.15
-0.04894292922269397,0.2,0.14
-0.042639728909644334,0.2,0.14
-0.2211870148301496,0.2,0.17
-0.016972149073117133,0.2,0.14
-0.025704190532680964,0.2,0.14
-0.24171442983877536,0.2,0.28
-0.4427988080402599,0.2,0.22
-0.019092393027089344,0.2,0.14
-0.031281363207415536,0.2,0.14
-0.032551311610966846,0.2,0.15
-0.03791408628686013,0.2,0.14
-0.024284202073612197,0.2,0.14
-0.024662544754143645,0.2,0.15
-0.014478981716078696,0.2,0.14
-0.02745134142419381,0.2,0.14
-0.25975953191046147,0.2,0.19
-0.05385293210294447,0.2,0.14
-0.035289298209942165,0.2,0.14
-0.26892789954538926,0.2,0.34
-0.23216190512981474,0.2,0.2
-0.20424698903423746,0.2,0.2
-0.026306643574387164,0.2,0.15
-0.053253653025603497,0.2,0.14
-0.04575906159892478,0.2,0.14
-0.051249581829584605,0.2,0.15
-0.022496637679616734,0.2,0.14
-0.03076481530137504,0.2,0.14
-0.31673256038950226,0.2,0.21
-0.0528026511236039,0.2,0.14
-0.024920954976558673,0.2,0.15
-0.1933682804571725,0.2,0.2
-0.08610829163545433,0.2,0.15
-0.08087505414289688,0.2,0.15
-0.22187250361106955,0.2,0.26
-0.1306952435878274,0.2,0.17
-0.10376871265226593,0.2,0.16
-0.037164237163718666,0.2,0.15
-0.04980068163339135,0.2,0.14
-0.05782810429180043,0.2,0.14
-0.031523825479687254,0.2,0.14
-0.4044641161581323,0.2,0.17
-0.03438757035042803,0.2,0.14
-0.0268645342596162,0.2,0.14
-0.6013474926085765,0.2,0.34
-0.12651401973204107,0.2,0.2
-0.025610973971583732,0.2,0.15
-0.05159023695098737,0.2,0.14
-0.07438972851216025,0.2,0.14
-0.03848248504740846,0.2,0.14
-0.05060362215857149,0.2,0.15
-0.025502950616274743,0.2,0.14
-0.04302088724577143,0.2,0.14
-0.06646229547217371,0.2,0.17
-0.034850942707393015,0.2,0.14
-0.028274603270040465,0.2,0.14
-0.3031106472627129,0.2,0.32
-0.5339550103720921,0.2,0.25
-0.026692271747790233,0.2,0.14
-0.029440354399409747,0.2,0.14
-0.025242011589828448,0.2,0.15
-0.022527744970208746,0.2,0.14
-0.03622338779756405,0.2,0.14
-0.05031118510443916,0.2,0.15
-0.038799562399758285,0.2,0.14
-0.04436626357966929,0.2,0.14
-0.14986936410402424,0.2,0.17
-0.026612511810535224,0.2,0.14
-0.031860504250226705,0.2,0.14
-0.25143805547043435,0.2,0.35
-0.294626530107248,0.2,0.27
-0.031135089866904744,0.2,0.14
-0.0360822176179898,0.2,0.14
-0.02782777180020417,0.2,0.14
-0.02373651882786299,0.2,0.15
-0.03338193417391792,0.2,0.14
-0.024972964222315253,0.2,0.14
-0.025991797610379556,0.2,0.15
-0.4519468796756492,0.2,0.17
-0.03871240409429143,0.2,0.14
-0.03237203254507889,0.2,0.14
-0.2713359446534086,0.2,0.26
-0.42163606585067914,0.2,0.61
-0.03420027026898602,0.2,0.16
-0.05848873161401991,0.2,0.14
-0.039026171601050576,0.2,0.14
-0.028351361324620655,0.2,0.14
-0.025500354558455108,0.2,0.15
-0.0272766222248861,0.2,0.14
-0.050788678782664055,0.2,0.14
-0.05367440520448456,0.2,0.15
-0.3024149885214567,0.2,0.21
-0.0314542400852823,0.2,0.14
-0.03739104236719311,0.2,0.14
-0.22196027987620423,0.2,0.2
-0.2621907550224839,0.2,0.19
-0.22734216229922272,0.2,0.2
-0.08388812524935503,0.2,0.15
-0.0375197051627376,0.2,0.14
-0.044311569021737114,0.2,0.15
-0.030675199021773895,0.2,0.14
-0.020768232743519528,0.2,0.14
-0.03845274384717617,0.2,0.15
-0.3643556345807103,0.2,0.17
-0.04404814450460941,0.2,0.14
-0.022768987287919415,0.2,0.14
-0.2058358491831595,0.2,0.2
-0.3720773001699611,0.2,0.34
-0.057110116696483144,0.2,0.14
-0.04284506326080356,0.2,0.15
-0.035836589188657064,0.2,0.14
-0.0581992060818325,0.2,0.14
-0.041097058608680945,0.2,0.15
-0.0477821249709597,0.2,0.14
-0.052832093485814115,0.2,0.14
-0.05564284155275414,0.2,0.14
-0.5032773195298125,0.2,0.17
-0.053129881130005226,0.2,0.14
-0.04440168991063029,0.2,0.14
-0.13861520603247843,0.2,0.2
-0.041254300237799045,0.2,0.14
-0.04043715120113012,0.2,0.15
-0.06042339198708148,0.2,0.14
-0.041708464468500336,0.2,0.14
-0.06781836785537446,0.2,0.15
-0.0794215211566992,0.2,0.14
-0.08201313483028062,0.2,0.14
-0.06257040058557332,0.2,0.14
-0.24964907108190423,0.2,0.18
-0.021729795311808242,0.2,0.14
-0.021548890040956115,0.2,0.14
-0.31342807713566917,0.2,0.24
-0.46834721481122166,0.2,0.29
-0.02961114287526044,0.2,0.15
-0.032340100404663154,0.2,0.14
-0.034004236415306824,0.2,0.14
-0.03249450975970976,0.2,0.14
-0.046696362159542155,0.2,0.15
-0.03692244045744597,0.2,0.14
-0.03767700060585755,0.2,0.14
-0.03289610486765271,0.2,0.15
-0.4327855835788098,0.2,0.17
-0.051341629241641124,0.2,0.14
-0.03413490874308804,0.2,0.14
-0.517577345376955,0.2,0.31
-0.06540796001275632,0.2,0.14
-0.03907244634781105,0.2,0.14
-0.02473185154634583,0.2,0.15
-0.04790416423376348,0.2,0.14
-0.03843240856112917,0.2,0.14
-0.03010375205820847,0.2,0.14
-0.03543143332224984,0.2,0.15
-0.03251339784690258,0.2,0.14
-0.05132039405968676,0.2,0.17
-0.06454591233397507,0.2,0.14
-0.03101498628938241,0.2,0.14
-0.05011802792447577,0.2,0.15
-0.19813357811869614,0.2,0.27
-0.24680354645567473,0.2,0.33
-0.3631086692150092,0.2,0.3
-0.028413446041759775,0.2,0.15
-0.07373763820047641,0.2,0.14
-0.05582265698814664,0.2,0.14
-0.04241235226194825,0.2,0.14
-0.033803709658692005,0.2,0.15
-0.03447337997421795,0.2,0.14
-0.15595324130080745,0.2,0.17
-0.024415843359229562,0.2,0.14
-0.021282685370238794,0.2,0.14
-0.3273544711942949,0.2,0.24
-0.4437194647622204,0.2,0.42
-0.05039822327913529,0.2,0.14
-0.02628208685851072,0.2,0.15
-0.03860591880216369,0.2,0.14
-0.02687970956278704,0.2,0.14
-0.029269522141164288,0.2,0.14
-0.03304236869741056,0.2,0.15
-0.022363507046531766,0.2,0.14
-0.09808054066449708,0.2,0.17
-0.022678323134305175,0.2,0.14
-0.0243101686539497,0.2,0.14
-0.192215027027786,0.2,0.27
-0.28938981272085645,0.2,0.43
-0.07592916518665438,0.2,0.14
-0.026867746655278597,0.2,0.14
-0.049162463893445835,0.2,0.15
-0.04385412717209738,0.2,0.14
-0.01993898835524076,0.2,0.14
-0.038450450262849,0.2,0.15
-0.017683381916485587,0.2,0.14
-0.020515113285132194,0.2,0.14
-0.14051466893731204,0.2,0.17
-0.04063204453371855,0.2,0.14
-0.0238109576340302,0.2,0.14
-0.6282388792669931,0.2,0.37
-0.2026187832988842,0.2,0.29
-0.022826388454828716,0.2,0.14
-0.047861296364770226,0.2,0.15
-0.03382523549456959,0.2,0.14
-0.036755068215118376,0.2,0.14
-0.031800283542628635,0.2,0.15
-0.05826379528070148,0.2,0.14
-0.12550338560477484,0.2,0.17
-0.14121785884921254,0.2,0.17
-0.05525480622382001,0.2,0.14
-0.06896393354979996,0.2,0.14
-0.2535063518873288,0.2,0.28
-0.15847310305572582,0.2,0.25
-0.43635230029284666,0.2,0.44
-0.2590016976020045,0.2,0.32
-0.2398103439640042,0.2,0.34
-0.16651322309330993,0.2,0.28
-0.09627944142138023,0.2,0.14
-0.07224480732523761,0.2,0.14
-0.05929593686648174,0.2,0.14
-0.049827362146658456,0.2,0.15
-0.9248714279667881,0.2,0.21
-0.1293566750533977,0.2,0.17
-0.05937459986833731,0.2,0.14
-0.2279574999662867,0.2,0.28
-0.3242686358948186,0.2,0.45
-0.1845742262970065,0.2,0.24
-0.39584685401886005,0.2,0.5
-0.06334226485139244,0.2,0.15
-0.041792839162620575,0.2,0.14
-0.029379751282632597,0.2,0.14
-0.034835694666649764,0.2,0.14
-0.059066779009322494,0.2,0.15
-0.3456704707935546,0.2,0.17
-0.024885971926954506,0.2,0.14
-0.0417516438905486,0.2,0.14
-0.29379455698196877,0.2,0.25
-0.4432770394066815,0.2,0.48
-0.24177162262992138,0.2,0.44
-0.0418728391604186,0.2,0.14
-0.03689228655743636,0.2,0.14
-0.028553395099520682,0.2,0.15
-0.03135135306923024,0.2,0.14
-0.01686461688931171,0.2,0.14
-0.02705043360910309,0.2,0.14
-0.03167933256632621,0.2,0.15
-0.3658983714896688,0.2,0.17
-0.02661043440748104,0.2,0.14
-0.044460042622970125,0.2,0.14
-0.5663682200800096,0.2,0.28
-0.2549726164422951,0.2,0.25
-0.03377788707508021,0.2,0.15
-0.025625929699244966,0.2,0.14
-0.023155870756974454,0.2,0.14
-0.032066341380992486,0.2,0.15
-0.037089073298179794,0.2,0.14
-0.048380795011834184,0.2,0.14
-0.028805015251830015,0.2,0.14
-0.42136762471382694,0.2,0.18
-0.02964386242698903,0.2,0.14
-0.039850583630300564,0.2,0.14
-0.0957851303302951,0.2,0.15
-0.07886149667956528,0.2,0.18
-0.05054295525892208,0.2,0.14
-0.06050223744558756,0.2,0.15
-0.061489329797222554,0.2,0.14
-0.09884520684438138,0.2,0.17
-0.03846149126162563,0.2,0.14
-0.03720365337907541,0.2,0.14
-0.03225193987616796,0.2,0.15
-0.04106538158787267,0.2,0.14
-0.11493551648865387,0.2,0.17
-0.028141854811425886,0.2,0.14
-0.025436078385099387,0.2,0.14
-0.19327122391004425,0.2,0.28
-0.21192753751871712,0.2,0.26
-0.04357164956852756,0.2,0.14
-0.025007819643740457,0.2,0.14
-0.033945527664209496,0.2,0.15
-0.03517303101054823,0.2,0.14
-0.027802993614729977,0.2,0.14
-0.023988236636961174,0.2,0.14
-0.04510131046435812,0.2,0.15
-0.27049111299362605,0.2,0.17
-0.02947849397182056,0.2,0.14
-0.0500330244669742,0.2,0.14
-0.2390747604861487,0.2,0.24
-0.3749551950507321,0.2,0.36
-0.25170576301683417,0.2,0.24
-0.23252007310539485,0.2,0.3
-0.14758504515652252,0.2,0.23
-0.05120960264558237,0.2,0.15
-0.028446196132905374,0.2,0.14
-0.026120972774716693,0.2,0.14
-0.014972398315265052,0.2,0.14
-0.048546674892361745,0.2,0.15
-0.5150285866456981,0.2,0.17
-0.017612033812966398,0.2,0.14
-0.024661466562454687,0.2,0.14
-0.25913414074877394,0.2,0.26
-0.42796636066387966,0.2,0.31
-0.018415082910441125,0.2,0.15
-0.0479647902227231,0.2,0.14
-0.018782733565429744,0.2,0.14
-0.0321438191975469,0.2,0.15
-0.016501276876138227,0.2,0.14
-0.042816612734339,0.2,0.14
-0.03438292915983819,0.2,0.14
-0.24445434073893998,0.2,0.18
-0.038244479455116706,0.2,0.14
-0.02271998528812564,0.2,0.14
-0.031757429713502816,0.2,0.15
-0.15134925832919718,0.2,0.16
-0.04390925520891332,0.2,0.15
-0.07366813431741684,0.2,0.14
-0.0893386584243204,0.2,0.15
-0.031143179545112316,0.2,0.14
-0.03216053805058133,0.2,0.15
-0.03684025740688784,0.2,0.14
-0.02284373173175568,0.2,0.14
-0.030498590937872716,0.2,0.15
-0.12720780598977852,0.2,0.17
-0.04928343154315664,0.2,0.14
-0.05327369825847977,0.2,0.14
-0.10734136991810334,0.2,0.16
-0.06791360212105627,0.2,0.14
-0.07019349765203615,0.2,0.14
-0.062295159256368485,0.2,0.14
-0.05352729960376839,0.2,0.15
-0.05139760719103774,0.2,0.14
-0.03219547394626065,0.2,0.14
-0.044688948716842945,0.2,0.15
-0.0437906583585864,0.2,0.14
-0.07620975869675142,0.2,0.17
-0.03092635454854252,0.2,0.14
-0.03920937286349229,0.2,0.14
-0.014299594001579544,0.2,0.15
-0.525142211343392,0.2,0.36
-0.04250319350739706,0.2,0.16
-0.03659550865561007,0.2,0.14
-0.023903518641965042,0.2,0.14
-0.034242976928225415,0.2,0.14
-0.033514127278320385,0.2,0.15
-0.023526157485420696,0.2,0.14
-0.023428937398611925,0.2,0.14
-0.035790729077991815,0.2,0.15
-0.38878359865924655,0.2,0.17
-0.03264856151189378,0.2,0.14
-0.07189262529217669,0.2,0.14
-0.2918531096214724,0.2,0.27
-0.26006039803310893,0.2,0.32
-0.14067671337103468,0.2,0.21
-0.2250505346597203,0.2,0.39
-0.15572151352298078,0.2,0.23
-0.03720658633285546,0.2,0.14
-0.04946463405924299,0.2,0.15
-0.045089609225206204,0.2,0.14
-0.04358184197125918,0.2,0.14
-0.25041379276961245,0.2,0.17
-0.021798535639452544,0.2,0.14
-0.02045776775611907,0.2,0.14
-0.2618833129076397,0.2,0.23
-0.3820109187118913,0.2,0.29
-0.043012587332620124,0.2,0.15
-0.047227629318034196,0.2,0.14
-0.03454460659096206,0.2,0.14
-0.017530892557071145,0.2,0.15
-0.030271673372938183,0.2,0.14
-0.020869045501929466,0.2,0.14
-0.0360292339244063,0.2,0.14
-0.023467341865821164,0.2,0.15
-0.21077785714015707,0.2,0.17
-0.03195108709885371,0.2,0.14
-0.031191733265672247,0.2,0.14
-0.33110917765807185,0.2,0.3
-0.5062571678978786,0.2,0.28
-0.09493663278667872,0.2,0.14
-0.05729057978888996,0.2,0.14
-0.03607061964667661,0.2,0.15
-0.02817573570853583,0.2,0.14
-0.02618372472291813,0.2,0.14
-0.030303293683686658,0.2,0.14
-0.049502577254958144,0.2,0.15
-0.17526637429785535,0.2,0.17
-0.09718555714832351,0.2,0.14
-0.06349283909448984,0.2,0.14
-0.33836471618303204,0.2,0.26
-0.2826831741922558,0.2,0.25
-0.2845503092687237,0.2,0.26
-0.0467363117029456,0.2,0.14
-0.029318907435339853,0.2,0.14
-0.025874146239822336,0.2,0.15
-0.07375787974364853,0.2,0.14
-0.04036222216640354,0.2,0.14
-0.03195324006680344,0.2,0.15
-0.039342970292628385,0.2,0.14
-0.43927499006861803,0.2,0.18
-0.033977451838147,0.2,0.14
-0.07660983052727527,0.2,0.15
-0.1767995069763335,0.2,0.35
-0.26258416090654507,0.2,0.21
-0.2011746494425138,0.2,0.3
-0.15534123937821642,0.2,0.24
-0.053156382958417805,0.2,0.14
-0.05742987316787232,0.2,0.15
-0.0740120786992833,0.2,0.14
-0.03662807837204105,0.2,0.14
-0.036522042389631054,0.2,0.14
-0.2700583436153517,0.2,0.18
-0.04422595236290949,0.2,0.14
-0.011510630100802288,0.2,0.14
-0.20832411127498074,0.2,0.2
-0.3565524867787416,0.2,0.55
-0.4062739926764089,0.2,0.24
-0.022727323796813394,0.2,0.14
-0.026277169323413674,0.2,0.15
-0.02286116631748006,0.2,0.14
-0.04197321673632609,0.2,0.14
-0.027171601365635893,0.2,0.15
-0.038696534837770344,0.2,0.14
-0.03393094059535295,0.2,0.14
-0.1540721417379252,0.2,0.17
-0.05847524125463655,0.2,0.14
-0.048533629503785904,0.2,0.14
-0.23002412564251373,0.2,0.37
-0.3635098108914528,0.2,0.39
-0.15463112778709356,0.2,0.24
-0.25799568812602697,0.2,0.29
-0.07782740991569943,0.2,0.16
-0.06542920736682743,0.2,0.14
-0.05603729894298918,0.2,0.14
-0.0680847466211816,0.2,0.14
-0.04346746402334753,0.2,0.15
-0.2183419140146688,0.2,0.17
-0.020131607792605203,0.2,0.14
-0.016069956259056366,0.2,0.14
-0.16022240405750024,0.2,0.21
-0.23511087735531658,0.2,0.41
-0.03531384754773673,0.2,0.14
-0.03559995571220506,0.2,0.15
-0.034556223917194866,0.2,0.14
-0.012610729460386322,0.2,0.14
-0.017527340633338967,0.2,0.15
-0.02209838734542462,0.2,0.14
-0.021962914851235592,0.2,0.14
-0.040386067635565535,0.2,0.14
-0.407658232890372,0.2,0.17
-0.029419757470174727,0.2,0.14
-0.02826680313891773,0.2,0.14
-0.35536372331620386,0.2,0.35
-0.23069447371098067,0.2,0.27
-0.027648816901082736,0.2,0.14
-0.03567315483990266,0.2,0.15
-0.028107064849655375,0.2,0.14
-0.026138501129047493,0.2,0.14
-0.02531755927062854,0.2,0.15
-0.027264701232559845,0.2,0.14
-0.037038560717475785,0.2,0.14
-0.4111412628641094,0.2,0.17
-0.1006257697257636,0.2,0.15
-0.05171659626900805,0.2,0.14
-0.08809678567499632,0.2,0.18
-0.16681527120121634,0.2,0.2
-0.0333860101506011,0.2,0.15
-0.051439522254891686,0.2,0.14
-0.03437642321861276,0.2,0.14
-0.06409875956076475,0.2,0.15
-0.030136739118589623,0.2,0.14
-0.05140508783402458,0.2,0.14
-0.02789856953667479,0.2,0.14
-0.044789583132044015,0.2,0.15
-0.10809172429853732,0.2,0.17
-0.02929892349471774,0.2,0.14
-0.04754833572834687,0.2,0.14
-0.25145347931924156,0.2,0.35
-0.31486737193005704,0.2,0.27
-0.23524921351558042,0.2,0.36
-0.2840835287955446,0.2,0.27
-0.04293616670050895,0.2,0.15
-0.10367270898478144,0.2,0.16
-0.066155351155925,0.2,0.15
-0.06882537248626358,0.2,0.14
-0.06394852571084074,0.2,0.14
-0.11487210941556328,0.2,0.17
-0.019283785994457837,0.2,0.14
-0.023295201903417346,0.2,0.14
-0.27143022797978467,0.2,0.24
-0.42387609906429646,0.2,0.28
-0.3270967080250891,0.2,0.36
-0.03640342265853073,0.2,0.14
-0.03478585986921118,0.2,0.15
-0.02682502611402053,0.2,0.14
-0.02490545460700746,0.2,0.14
-0.03101178351850455,0.2,0.15
-0.025976360027658393,0.2,0.14
-0.020641477009965742,0.2,0.14
-0.4299526463977839,0.2,0.17
-0.02875288756414931,0.2,0.14
-0.053581657930239654,0.2,0.14
-0.24084572580730215,0.2,0.29
-0.2922864432207522,0.2,0.25
-0.3141739068466293,0.2,0.2
-0.05376297584653048,0.2,0.15
-0.0171178577376359,0.2,0.14
-0.027887934567638818,0.2,0.14
-0.025057642057006453,0.2,0.14
-0.054407885908159766,0.2,0.15
-0.06317075037941004,0.2,0.14
-0.355487028088938,0.2,0.17
-0.047748221692418845,0.2,0.14
-0.03689268572330693,0.2,0.14
-0.2247516002852862,0.2,0.19
-0.3294042754224451,0.2,0.37
-0.07270479723063009,0.2,0.16
-0.020814795869135046,0.2,0.14
-0.06792812669223411,0.2,0.15
-0.041583006019726705,0.2,0.14
-0.07439538203107125,0.2,0.14
-0.04083285028260393,0.2,0.14
-0.042394950601586844,0.2,0.15
-0.03203378418797864,0.2,0.14
-0.46182918549517604,0.2,0.17
-0.05338136061005737,0.2,0.14
-0.042844896198916495,0.2,0.14
-0.2813756691313933,0.2,0.3
-0.49030127948178914,0.2,0.28
-0.0384454659320705,0.2,0.14
-0.03908906758779837,0.2,0.14
-0.04585612665299682,0.2,0.15
-0.047671204804235284,0.2,0.14
-0.05030528792410214,0.2,0.14
-0.06484659296723431,0.2,0.15
-0.04290225155158935,0.2,0.14
-0.2987163769764681,0.2,0.17
-0.017465112094784213,0.2,0.14
-0.02186606088785375,0.2,0.14
-0.2658498151858405,0.2,0.28
-0.3453125766139225,0.2,0.58
-0.39807520010316727,0.2,0.26
-0.01640336853357892,0.2,0.14
-0.05120562704287036,0.2,0.15
-0.033346504118142044,0.2,0.14
-0.030030894727441693,0.2,0.14
-0.03504696210235143,0.2,0.14
-0.0412541151424918,0.2,0.15
-0.027739711817752276,0.2,0.14
-0.42059440330893294,0.2,0.17
-0.024893210835345982,0.2,0.14
-0.028099112241031943,0.2,0.14
-0.35185457530361014,0.2,0.45
-0.5559474612014409,0.2,0.27
-0.04709306848086109,0.2,0.14
-0.05310216159083256,0.2,0.15
-0.04377980829339461,0.2,0.14
-0.018225979731951548,0.2,0.14
-0.05522236221100843,0.2,0.15
-0.04526837923578754,0.2,0.14
-0.037314295079607374,0.2,0.14
-0.1793183886684558,0.2,0.17
-0.03688098300534234,0.2,0.14
-0.053540234501870634,0.2,0.14
-0.3383892967835118,0.2,0.3
-0.44681249550203395,0.2,0.64
-0.08091365066847982,0.2,0.18
-0.03357137286712245,0.2,0.14
-0.04341771501455063,0.2,0.14
-0.03338192353804305,0.2,0.15
-0.03949340660787032,0.2,0.14
-0.06454787672329111,0.2,0.14
-0.04402201623135768,0.2,0.14
-0.02956979246366793,0.2,0.15
-0.3792424609555805,0.2,0.17
-0.023431586526787757,0.2,0.14
-0.02578944977955708,0.2,0.14
-0.4059899679479841,0.2,0.43
-0.4789465795166635,0.2,0.25
-0.027693293512761726,0.2,0.15
-0.03415690403386795,0.2,0.14
-0.0270506605533325,0.2,0.14
-0.0369446927826127,0.2,0.14
-0.030878938017328435,0.2,0.15
-0.03609466276286922,0.2,0.14
-0.025046389351541055,0.2,0.14
-0.27532596569825424,0.2,0.17
-0.040096405072993384,0.2,0.14
-0.031301166426048126,0.2,0.14
-0.11090305528161766,0.2,0.19
-0.17535281818146828,0.2,0.2
-0.03574381125231292,0.2,0.14
-0.030189642934710947,0.2,0.14
-0.04787068286655546,0.2,0.15
-0.04982078334641659,0.2,0.14
-0.04263767135332793,0.2,0.14
-0.05912251208155838,0.2,0.15
-0.04499556185320119,0.2,0.14
-0.04419508078735321,0.2,0.14
-0.14742353601858127,0.2,0.17
-0.03343071560876618,0.2,0.14
-0.04579733171012011,0.2,0.14
-0.1118656835347512,0.2,0.17
-0.24293157151824363,0.2,0.38
-0.4134107295031434,0.2,0.45
-0.08915138213479422,0.2,0.16
-0.24968835478592755,0.2,0.33
-0.274206380990903,0.2,0.38
-0.059756498868960416,0.2,0.15
-0.02949016523620589,0.2,0.14
-0.05147034926695701,0.2,0.15
-0.6864782699418142,0.2,0.17
-0.016864936481559806,0.2,0.14
-0.026357410147507202,0.2,0.14
-0.2567310247985742,0.2,0.17
-0.40617257387375527,0.2,0.37
-0.022310641780716622,0.2,0.14
-0.027083777010532672,0.2,0.15
-0.01989532259494051,0.2,0.14
-0.05812722159750234,0.2,0.14
-0.034283601155984104,0.2,0.15
-0.02679713906071061,0.2,0.14
-0.022239670776484508,0.2,0.14
-0.05432214188013231,0.2,0.14
-0.43066269207714314,0.2,0.17
-0.03546268556051277,0.2,0.14
-0.04525903224194455,0.2,0.14
-0.15606858443385002,0.2,0.19
-0.11678552140714638,0.2,0.18
-0.03537168231225113,0.2,0.15
-0.05557955380048493,0.2,0.14
-0.045247151590404655,0.2,0.14
-0.022442177831457272,0.2,0.14
-0.03087722577874508,0.2,0.15
-0.04128129504594523,0.2,0.14
-0.04450812006481667,0.2,0.14
-0.14355253521862169,0.2,0.17
-0.05532299415362734,0.2,0.14
-0.019750633382536912,0.2,0.14
-0.29328348971993523,0.2,0.31
-0.4606666503538765,0.2,0.29
-0.05349624863923289,0.2,0.14
-0.04132977526870641,0.2,0.15
-0.06388249546506856,0.2,0.14
-0.026359696415037177,0.2,0.14
-0.032062293551217765,0.2,0.15
-0.03594045852514475,0.2,0.14
-0.04867061611164104,0.2,0.14
-0.04554880636967102,0.2,0.14
-0.1894912533466999,0.2,0.17
-0.032569500995066364,0.2,0.14
-0.024813580615218492,0.2,0.14
-0.5436850437433354,0.2,0.38
-0.0337961081915379,0.2,0.15
-0.0419701075052021,0.2,0.14
-0.032057859115609655,0.2,0.14
-0.04456276987644045,0.2,0.14
-0.06194602658649741,0.2,0.17
-0.08514275252062359,0.2,0.15
-0.06013475776982356,0.2,0.14
-0.0653517636083586,0.2,0.14
-0.5811645744448395,0.2,0.17
-0.04615653126983325,0.2,0.14
-0.031093875944853012,0.2,0.14
-0.2571046755232629,0.2,0.27
-0.519065308694864,0.2,0.25
-0.04165330902601065,0.2,0.14
-0.025518375649062043,0.2,0.14
-0.044847272535272084,0.2,0.14
-0.03126119081816832,0.2,0.15
-0.02502138753572077,0.2,0.14
-0.040343176161163986,0.2,0.14
-0.03989367084313792,0.2,0.15
-0.03707303587623791,0.2,0.14
-0.46053643217749046,0.2,0.17
-0.044568072036850905,0.2,0.14
-0.05309849234790615,0.2,0.14
-0.14966666047766636,0.2,0.29
-0.10070844166431507,0.2,0.14
-0.10498505141723644,0.2,0.17
-0.23794022145390717,0.2,0.33
-0.14752465892420202,0.2,0.16
-0.09468122349085481,0.2,0.14
-0.05488685670087869,0.2,0.15
-0.06505703079485835,0.2,0.14
-0.06359717113922168,0.2,0.14
-0.7703774608880918,0.2,0.18
-0.08856447543799566,0.2,0.16
-0.06462373786553217,0.2,0.14
-0.11806671439621944,0.2,0.18
-0.2567549721068353,0.2,0.31
-0.385502506596542,0.2,0.45
-0.2969134224691994,0.2,0.32
-0.26210632635348874,0.2,0.3
-0.09673818918963953,0.2,0.15
-0.055834295516395537,0.2,0.14
-0.05563395528268905,0.2,0.14
-0.06004028602950553,0.2,0.15
-0.04760626505766597,0.2,0.14
-0.8612431420277777,0.2,0.17
-0.034623937850755376,0.2,0.14
-0.03430875818612198,0.2,0.14
-0.5411864843871905,0.2,0.35
-0.24479296806493264,0.2,0.46
-0.04214442745671476,0.2,0.14
-0.03282629300184561,0.2,0.14
-0.03311195641044192,0.2,0.15
-0.04464635500435007,0.2,0.14
-0.032277545237064505,0.2,0.14
-0.0344397354621622,0.2,0.14
-0.026721391813758693,0.2,0.15
-0.440860823669639,0.2,0.17
-0.10819682859518993,0.2,0.14
-0.04925077882557486,0.2,0.14
-0.3716670033731111,0.2,0.23
-0.4799786238530461,0.2,0.39
-0.23241379963809145,0.2,0.21
-0.05562118798928546,0.2,0.15
-0.048538645776982504,0.2,0.14
-0.08582571306047032,0.2,0.14
-0.0687744617027155,0.2,0.15
-0.056031587827809,0.2,0.14
-0.046222570767230485,0.2,0.14
-0.04131283981109391,0.2,0.14
-0.5276783637064348,0.2,0.17
-0.04705779319533412,0.2,0.14
-0.04598802267296164,0.2,0.14
-0.5435934401592046,0.2,0.35
-0.11465475997478444,0.2,0.22
-0.023016091620913504,0.2,0.14
-0.061869295401318726,0.2,0.14
-0.06650875397583791,0.2,0.15
-0.06362750200120593,0.2,0.14
-0.03058122781445433,0.2,0.14
-0.03719639311085953,0.2,0.15
-0.06254459161806132,0.2,0.14
-0.08127885662539494,0.2,0.17
-0.04215059387855114,0.2,0.14
-0.03697547895276206,0.2,0.14
-0.2409441207757968,0.2,0.23
-0.13018597127181988,0.2,0.19
-0.5128834507241694,0.2,0.24
-0.01489554223746582,0.2,0.14
-0.017523172098439767,0.2,0.15
-0.03767441814457223,0.2,0.14
-0.029697666556122257,0.2,0.14
-0.07111166428825642,0.2,0.14
-0.036586321237551574,0.2,0.15
-0.05266963971235925,0.2,0.14
-0.36723332794393815,0.2,0.17
-0.021648023138130565,0.2,0.14
-0.031305134293057583,0.2,0.14
-0.2074683910563261,0.2,0.26
-0.27644621954814586,0.2,0.22
-0.024215274332727195,0.2,0.15
-0.040515164794643205,0.2,0.14
-0.04205684797556156,0.2,0.14
-0.05360621864756456,0.2,0.14
-0.04569238563958172,0.2,0.15
-0.03561192632471189,0.2,0.14
-0.04306789041112062,0.2,0.14
-0.1736499233659433,0.2,0.17
-0.02808133323272138,0.2,0.14
-0.030520833943820075,0.2,0.14
-0.21107064806516,0.2,0.21
-0.09545561488859922,0.2,0.16
-0.16314123015351575,0.2,0.23
-0.22342126298898063,0.2,0.19
-0.1248079694171944,0.2,0.19
-0.03769185106720756,0.2,0.14
-0.0432269075870661,0.2,0.14
-0.03642208723536626,0.2,0.15
-0.019034225379750608,0.2,0.14
-0.047676769773307384,0.2,0.14
-0.3148648698595096,0.2,0.17
-0.022308520897541487,0.2,0.14
-0.01378351640080763,0.2,0.14
-0.2994544173394444,0.2,0.23
-0.4372785527999234,0.2,0.28
-0.013089808762108076,0.2,0.14
-0.021392400261493867,0.2,0.14
-0.02818486911527364,0.2,0.15
-0.03144049221189595,0.2,0.14
-0.01510162496617504,0.2,0.14
-0.02153343246544538,0.2,0.15
-0.027820879671082856,0.2,0.14
-0.1387349798822747,0.2,0.17
-0.04516893557938718,0.2,0.14
-0.06260793423892522,0.2,0.14
-0.0808666131262214,0.2,0.17
-0.057873126591177874,0.2,0.14
-0.16567554435222787,0.2,0.2
-0.35713772477615935,0.2,0.21
-0.07123963947981624,0.2,0.14
-0.11071792396117316,0.2,0.14
-0.09577804252683574,0.2,0.15
-0.07238416320317664,0.2,0.14
-0.07016493186502108,0.2,0.14
-0.06776091503632786,0.2,0.14
-0.13206243067547932,0.2,0.17
-0.017709044109622627,0.2,0.14
-0.02755900118372307,0.2,0.14
-0.22800647783257744,0.2,0.27
-0.3628739379633502,0.2,0.34
-0.03376025348787776,0.2,0.15
-0.01874177427361811,0.2,0.14
-0.017522336475246245,0.2,0.14
-0.01070849839121759,0.2,0.15
-0.01569070054446215,0.2,0.14
-0.028812363697370377,0.2,0.14
-0.013768202288340456,0.2,0.14
-0.20149077671589238,0.2,0.18
-0.05873856515904616,0.2,0.14
-0.034066363242035734,0.2,0.14
-0.15879315964796412,0.2,0.27
-0.15049906618712572,0.2,0.22
-0.22542183768868382,0.2,0.32
-0.1525292375172704,0.2,0.24
-0.21562743422571196,0.2,0.35
-0.1427679792051948,0.2,0.22
-0.047479027474134385,0.2,0.15
-0.04277917554760366,0.2,0.15
-0.05773029268046916,0.2,0.14
-0.07333249613495547,0.2,0.14
-0.24629987751531884,0.2,0.17
-0.02697368906825299,0.2,0.14
-0.024415654454176035,0.2,0.14
-0.3187061360163444,0.2,0.27
-0.4563954452999944,0.2,0.27
-0.042430589643942584,0.2,0.14
-0.03455330709240552,0.2,0.14
-0.030873396692813193,0.2,0.14
-0.04008802628209086,0.2,0.15
-0.033271941988560476,0.2,0.14
-0.03309185538657744,0.2,0.14
-0.0636092141164319,0.2,0.15
-0.04240259954087467,0.2,0.17
-0.02420246817691998,0.2,0.14
-0.02433034310674269,0.2,0.14
-0.11891881969795479,0.2,0.17
-0.20732092688790693,0.2,0.29
-0.0386704947930347,0.2,0.14
-0.01888898375023088,0.2,0.14
-0.036141859159565214,0.2,0.15
-0.02682040174835326,0.2,0.14
-0.028072175338942525,0.2,0.14
-0.02828850093038878,0.2,0.14
-0.015691364735521053,0.2,0.15
-0.02696949874888091,0.2,0.14
-0.09863569926351695,0.2,0.17
-0.033117343864800586,0.2,0.14
-0.05184519474865876,0.2,0.14
-0.408497646028128,0.2,0.35
-0.14870064632414576,0.2,0.23
-0.050378876804583264,0.2,0.14
-0.03964766953360501,0.2,0.14
-0.06016280484523003,0.2,0.15
-0.01797159416192338,0.2,0.14
-0.024157921241239996,0.2,0.14
-0.040832299319552116,0.2,0.15
-0.028468563873663092,0.2,0.14
-0.30839551716643554,0.2,0.17
-0.035431879298332226,0.2,0.14
-0.048325734221769535,0.2,0.14
-0.26355138154593094,0.2,0.29
-0.45522964817334344,0.2,0.28
-0.03085493599383397,0.2,0.14
-0.07305081350591493,0.2,0.14
-0.033748300308725096,0.2,0.15
-0.05607959385893755,0.2,0.14
-0.039743925689771704,0.2,0.14
-0.03407474958363538,0.2,0.15
-0.042227182934811106,0.2,0.14
-0.02973432376475653,0.2,0.14
-0.35653954770657037,0.2,0.18
-0.0482030366981319,0.2,0.14
-0.035836354902338746,0.2,0.14
-0.2374884444628845,0.2,0.31
-0.2751290287069959,0.2,0.2
-0.25111449399959046,0.2,0.22
-0.06970646482185558,0.2,0.15
-0.042864538483844326,0.2,0.14
-0.07266379541249719,0.2,0.14
-0.09020097113177522,0.2,0.15
-0.023210719955135243,0.2,0.14
-0.038481327120881384,0.2,0.14
-0.428613960478735,0.2,0.17
-0.031473925968536653,0.2,0.14
-0.028074216653031336,0.2,0.14
-0.02609182081850731,0.2,0.15
-0.2609067994204679,0.2,0.25
-0.45578571320364847,0.2,0.23
-0.02078949804254187,0.2,0.15
-0.023293318371406975,0.2,0.14
-0.02735422992014773,0.2,0.14
-0.03088900706947622,0.2,0.14
-0.025998959574830807,0.2,0.15
-0.026094433019953966,0.2,0.14
-0.02076938890110846,0.2,0.14
-0.2720950347030171,0.2,0.17
-0.035031634913760344,0.2,0.14
-0.03387236655164538,0.2,0.14
-0.32448450653829647,0.2,0.22
-0.5658120411612181,0.2,0.41
-0.056926956211755836,0.2,0.18
-0.027157438213215673,0.2,0.14
-0.02509234911878001,0.2,0.14
-0.0301497686612818,0.2,0.15
-0.0421047424721481,0.2,0.14
-0.03401312597434724,0.2,0.14
-0.02843564729704567,0.2,0.14
-0.3591992597618427,0.2,0.18
-0.0844743840931328,0.2,0.15
-0.06776454874582347,0.2,0.15
-0.317446339837906,0.2,0.23
-0.4743764656321683,0.2,0.28
-0.06015582778985006,0.2,0.15
-0.030316240297385,0.2,0.14
-0.07756764434066767,0.2,0.14
-0.05184957938086472,0.2,0.14
-0.035008569680963664,0.2,0.15
-0.03176216361619963,0.2,0.14
-0.054244836221360886,0.2,0.14
-0.02840570932193481,0.2,0.15
-0.43733344899553805,0.2,0.17
-0.02008089401109563,0.2,0.14
-0.036817506320326814,0.2,0.14
-0.2524862075667864,0.2,0.4
-0.34214218485621406,0.2,0.41
-0.05211922708623079,0.2,0.14
-0.023065912184951073,0.2,0.15
-0.018083788306013163,0.2,0.14
-0.024641993661080257,0.2,0.14
-0.03371364927948061,0.2,0.15
-0.039471396408830565,0.2,0.14
-0.032993853934806756,0.2,0.14
-0.20512764103850092,0.2,0.17
-0.02403916897750421,0.2,0.14
-0.05938892792111303,0.2,0.14
-0.05591925108643823,0.2,0.15
-0.1354100642069887,0.2,0.19
-0.05392375948238796,0.2,0.14
-0.06803553953212546,0.2,0.14
-0.04921792221996725,0.2,0.15
-0.05095346997211624,0.2,0.14
-0.07169525321967846,0.2,0.14
-0.05177262432651346,0.2,0.15
-0.04731052285038137,0.2,0.14
-0.043238728018412866,0.2,0.14
-0.17658142023771936,0.2,0.17
-0.03329146904710787,0.2,0.14
-0.044459327224556394,0.2,0.14
-0.2111786219536718,0.2,0.3
-0.3032780027545725,0.2,0.24
-0.10080957671669483,0.2,0.15
-0.16781666484675836,0.2,0.21
-0.10852918872031385,0.2,0.14
-0.056669314014270195,0.2,0.14
-0.06443765839715963,0.2,0.15
-0.05330661576981033,0.2,0.14
-0.04646059870029528,0.2,0.14
-0.03719793690620783,0.2,0.17
-0.03730904711926565,0.2,0.14
-0.023750033261999124,0.2,0.14
-0.3073385162151499,0.2,0.24
-0.4849155563666906,0.2,0.27
-0.0338825998267057,0.2,0.15
-0.02901776122477773,0.2,0.14
-0.03848324416833205,0.2,0.14
-0.026061445199312035,0.2,0.14
-0.061818361736981665,0.2,0.15
-0.03197005341078093,0.2,0.14
-0.052026366054155726,0.2,0.14
-0.02772844415345821,0.2,0.15
-0.37851691810279875,0.2,0.17
-0.03902485538260057,0.2,0.14
-0.06110118108960223,0.2,0.14
-0.4166911190328688,0.2,0.4
-0.30547590447612877,0.2,0.19
-0.043568250977021786,0.2,0.15
-0.038948409356312205,0.2,0.14
-0.04045003628577169,0.2,0.14
-0.027475980343741754,0.2,0.15
-0.03614565678046371,0.2,0.14
-0.02481715996675947,0.2,0.14
-0.034072208846873814,0.2,0.14
-0.22641820112258695,0.2,0.21
-0.05482909075147859,0.2,0.14
-0.05476687346775121,0.2,0.14
-0.08430108866238994,0.2,0.17
-0.2815933789750091,0.2,0.29
-0.09052601818177401,0.2,0.16
-0.24754796452157216,0.2,0.21
-0.06041392141282128,0.2,0.14
-0.06083733635767281,0.2,0.14
-0.04406872716541439,0.2,0.15
-0.032092013261880166,0.2,0.14
-0.020987294240751846,0.2,0.14
-0.03672318354272545,0.2,0.15
-0.4027079832484228,0.2,0.21
-0.031848179831127456,0.2,0.14
-0.04622247411796283,0.2,0.15
-0.1349814399789004,0.2,0.19
-0.2093464733278337,0.2,0.19
-0.21607508772467937,0.2,0.2
-0.04029864474489877,0.2,0.15
-0.06457367485475608,0.2,0.14
-0.050363262232896555,0.2,0.14
-0.032756742574410906,0.2,0.15
-0.0616502992717328,0.2,0.14
-0.06603495323768965,0.2,0.14
-0.35368548735374816,0.2,0.26
-0.038770884774048574,0.2,0.14
-0.05863104985393409,0.2,0.15
-0.1005432273892038,0.2,0.18
-0.10494838053618086,0.2,0.17
-0.034223267456433684,0.2,0.14
-0.07223123709221567,0.2,0.14
-0.20084824713895524,0.2,0.33
-0.11769285773339856,0.2,0.16
-0.06184912766886451,0.2,0.15
-0.049528795633335024,0.2,0.14
-0.013379169433808192,0.2,0.14
-0.04710210281934979,0.2,0.15
-0.482273174706148,0.2,0.17
-0.02489867162602413,0.2,0.14
-0.039524472066761525,0.2,0.14
-0.5588002707828609,0.2,0.35
-0.06269134325288324,0.2,0.16
-0.03605974354194514,0.2,0.14
-0.043762809693286324,0.2,0.15
-0.03846459960064206,0.2,0.14
-0.033660776328519694,0.2,0.14
-0.02513478503427248,0.2,0.14
-0.018946923981797568,0.2,0.15
-0.014505147846262244,0.2,0.14
-0.2775082589726838,0.2,0.18
-0.09125770762645273,0.2,0.16
-0.0356155484236875,0.2,0.14
-0.20839797854300549,0.2,0.2
-0.3088464932279322,0.2,0.36
-0.03848256724885888,0.2,0.15
-0.02981413219670809,0.2,0.15
-0.041745125401990324,0.2,0.14
-0.049162383868668835,0.2,0.14
-0.12309996150975878,0.2,0.15
-0.06404497347718707,0.2,0.14
-0.046858381158632535,0.2,0.14
-0.02987881759758513,0.2,0.14
-0.23323885109011122,0.2,0.17
-0.029696567219936066,0.2,0.14
-0.024387700807846285,0.2,0.14
-0.21762406097918544,0.2,0.22
-0.23885514683773787,0.2,0.24
-0.12050484535023492,0.2,0.19
-0.2638332663539531,0.2,0.23
-0.19614032546435606,0.2,0.24
-0.2671152259560973,0.2,0.35
-0.09416712542798847,0.2,0.15
-0.08005609016637674,0.2,0.15
-0.0322164000162845,0.2,0.15
-0.5275488889181541,0.2,0.17
-0.032145409235414486,0.2,0.14
-0.026232618768641625,0.2,0.14
-0.25980332234352493,0.2,0.29
-0.2643692871549558,0.2,0.28
-0.3263044390706546,0.2,0.2
-0.06071971876730735,0.2,0.14
-0.0477922495962023,0.2,0.14
-0.02535662215518676,0.2,0.15
-0.04675777639099116,0.2,0.14
-0.03257566984467277,0.2,0.14
-0.041334132044863414,0.2,0.14
-0.0435257490138256,0.2,0.15
-0.1673536023438303,0.2,0.17
-0.01961210539889407,0.2,0.14
-0.04414799295923783,0.2,0.14
-0.4828770717837229,0.2,0.52
-0.44166468577424944,0.2,0.32
-0.026940651541991555,0.2,0.15
-0.029257024703932866,0.2,0.14
-0.0460931260719213,0.2,0.14
-0.0390522828417559,0.2,0.14
-0.03329002132638875,0.2,0.15
-0.035405424690885395,0.2,0.14
-0.04888104125909243,0.2,0.14
-0.5430374163203054,0.2,0.17
-0.027992413343922832,0.2,0.14
-0.03227833994720502,0.2,0.14
-0.30442184637415104,0.2,0.25
-0.4433439312109904,0.2,0.32
-0.2236218388669235,0.2,0.24
-0.04411433132177771,0.2,0.14
-0.021691678460338773,0.2,0.14
-0.02674906216658596,0.2,0.15
-0.02029837478156001,0.2,0.14
-0.027348593527000045,0.2,0.14
-0.03877817730190388,0.2,0.14
-0.029726803014776756,0.2,0.15
-0.17056923457921966,0.2,0.17
-0.04653935620161271,0.2,0.14
-0.03433590300668454,0.2,0.14
-0.5410130489211484,0.2,0.47
-0.24280810552037796,0.2,0.24
-0.03288242040049423,0.2,0.15
-0.02218705950348397,0.2,0.14
-0.069591565697227,0.2,0.15
-0.04885679580793356,0.2,0.14
-0.02253103410689539,0.2,0.15
-0.03983592891262644,0.2,0.14
-0.0385836204846316,0.2,0.14
-0.14370356924086497,0.2,0.18
-0.042123010641646134,0.2,0.14
-0.027239572284293516,0.2,0.14
-0.23968746609148914,0.2,0.21
-0.6645056712801681,0.2,0.43
-0.04905247957026105,0.2,0.15
-0.03267057910834028,0.2,0.15
-0.05375996347247575,0.2,0.14
-0.046679329612925424,0.2,0.14
-0.05298290914043793,0.2,0.15
-0.05015697653302249,0.2,0.14
-0.040093645280777725,0.2,0.14
-0.039416877898557204,0.2,0.14
-0.05725547150349406,0.2,0.17
-0.02283497828338549,0.2,0.14
-0.04966003044119764,0.2,0.14
-0.6091033531412211,0.2,0.29
-0.18316624213749863,0.2,0.23
-0.06123745410595503,0.2,0.14
-0.05417499428999583,0.2,0.14
-0.04855432810849795,0.2,0.15
-0.052595750056651305,0.2,0.14
-0.07152178229404083,0.2,0.14
-0.026105283527329173,0.2,0.15
-0.05925673282929254,0.2,0.14
-0.10056184603186993,0.2,0.17
-0.06860344027953785,0.2,0.14
-0.09229100666546343,0.2,0.14
-0.1162689496223796,0.2,0.21
-0.1681650158116523,0.2,0.19
-0.07616083571384362,0.2,0.14
-0.0518235702700805,0.2,0.14
-0.03327131312983301,0.2,0.15
-0.030959589304244795,0.2,0.14
-0.04936642644141661,0.2,0.14
-0.07151705602047186,0.2,0.14
-0.06901251455584177,0.2,0.15
-0.04328721221126308,0.2,0.14
-0.14929310269710097,0.2,0.17
-0.022128089339738092,0.2,0.14
-0.03360185175205841,0.2,0.14
-0.24787148197799427,0.2,0.39
-0.2748663538864015,0.2,0.3
-0.016751090117437098,0.2,0.15
-0.04919449532100689,0.2,0.14
-0.02515714371651871,0.2,0.14
-0.027741979953416384,0.2,0.14
-0.0359299715342716,0.2,0.15
-0.0494093073514919,0.2,0.14
-0.04352152608614668,0.2,0.14
-0.20655320766629245,0.2,0.17
-0.045672192119142994,0.2,0.14
-0.03534652565256155,0.2,0.14
-0.0797816571167522,0.2,0.15
-0.17680329884292348,0.2,0.22
-0.04204430289465644,0.2,0.14
-0.041209345872128746,0.2,0.15
-0.042278354208495135,0.2,0.14
-0.03235938954486385,0.2,0.14
-0.03658138834209939,0.2,0.15
-0.03516184500892967,0.2,0.14
-0.05141803197170115,0.2,0.14
-0.030842967825543865,0.2,0.14
-0.1866145625668379,0.2,0.18
-0.06108204046664072,0.2,0.14
-0.03969995029633828,0.2,0.14
-0.1944033614265075,0.2,0.2
-0.05993751198369947,0.2,0.14
-0.10663787545775891,0.2,0.15
-0.215983450933425,0.2,0.33
-0.0754864722251956,0.2,0.14
-0.03664784797496397,0.2,0.14
-0.04750402099226706,0.2,0.14
-0.09008612475665931,0.2,0.16
-0.038606083254514444,0.2,0.14
-0.5291809695819184,0.2,0.17
-0.02905278678740386,0.2,0.14
-0.034507369229578005,0.2,0.14
-0.33131950569338753,0.2,0.31
-0.5895317309459268,0.2,0.28
-0.4405082214288071,0.2,0.38
-0.049117117714472344,0.2,0.14
-0.06184694872434019,0.2,0.14
-0.052061158827787314,0.2,0.15
-0.07561896849855854,0.2,0.14
-0.08058009787771904,0.2,0.14
-0.05812478832867998,0.2,0.15
-0.10067844745039559,0.2,0.15
-0.6767916783208859,0.2,0.17
-0.04278074400039412,0.2,0.14
-0.08482413594941345,0.2,0.14
-0.25512399134530755,0.2,0.4
-0.45280590341831284,0.2,0.35
-0.1768981026869574,0.2,0.28
-0.2912034883561993,0.2,0.36
-0.055415972391636835,0.2,0.15
-0.03976302987101305,0.2,0.14
-0.06893288791746359,0.2,0.14
-0.06240804782888958,0.2,0.15
-0.06047223890366636,0.2,0.14
-0.16089052883041355,0.2,0.17
-0.024640184482584426,0.2,0.14
-0.032729635086505865,0.2,0.14
-0.028390528143531827,0.2,0.15
-0.6741569343317116,0.2,0.32
-0.33700421403396386,0.2,0.42
-0.052201399357904125,0.2,0.14
-0.025930528189984776,0.2,0.14
-0.05310270004298648,0.2,0.15
-0.0238687553288664,0.2,0.14
-0.029669819390138432,0.2,0.14
-0.030550947364725682,0.2,0.15
-0.026124832004453452,0.2,0.14
-0.507954034285642,0.2,0.17
-0.02347369457813329,0.2,0.14
-0.0409175718192928,0.2,0.14
-0.16799048407614972,0.2,0.2
-0.2322118846946971,0.2,0.2
-0.025771930695145506,0.2,0.15
-0.023383167289016012,0.2,0.14
-0.031719537536509246,0.2,0.14
-0.034937136421892286,0.2,0.15
-0.03982970992741471,0.2,0.14
-0.035532904254149705,0.2,0.14
-0.03470930570158904,0.2,0.14
-0.17570053982396902,0.2,0.18
-0.025705903784512374,0.2,0.14
-0.03176597964489032,0.2,0.14
-0.3087209580204236,0.2,0.28
-0.4901990904990438,0.2,0.31
-0.06719293969410298,0.2,0.14
-0.052202222925153766,0.2,0.14
-0.07513059366575052,0.2,0.14
-0.07326633844203757,0.2,0.15
-0.06771290196083676,0.2,0.14
-0.08833915241044314,0.2,0.14
-0.04667449388308629,0.2,0.15
-0.049101608465748396,0.2,0.14
-0.8312505067856187,0.2,0.17
-0.012547384762988351,0.2,0.14
-0.019551156511381427,0.2,0.14
-0.5912653411121546,0.2,0.34
-0.12608402977495867,0.2,0.21
-0.024728612505393925,0.2,0.14
-0.032393041132916814,0.2,0.15
-0.02970658231011931,0.2,0.14
-0.043168543981368934,0.2,0.14
-0.040412505120422514,0.2,0.14
-0.05054990466362311,0.2,0.15
-0.029302829719110215,0.2,0.14
-0.2904788567096745,0.2,0.17
-0.01680958560067043,0.2,0.14
-0.034632225611143534,0.2,0.14
-0.04014541765102112,0.2,0.15
-0.6463557290466014,0.2,0.34
-0.2766832466838616,0.2,0.23
-0.03564932290225429,0.2,0.14
-0.05033425134838642,0.2,0.14
-0.044246389702648915,0.2,0.15
-0.02698094076038765,0.2,0.14
-0.028990921639569428,0.2,0.14
-0.02073002824280721,0.2,0.14
-0.03574210120877075,0.2,0.15
-0.08042921285336611,0.2,0.17
-0.04674941527981522,0.2,0.14
-0.06852975905652099,0.2,0.14
-0.10552879785992247,0.2,0.17
-0.10247721351145946,0.2,0.16
-0.1691099476406723,0.2,0.18
-0.33117270739937305,0.2,0.25
-0.0795176386381637,0.2,0.15
-0.06076744777760756,0.2,0.14
-0.09192517451376324,0.2,0.14
-0.07179977295856543,0.2,0.15
-0.05689638277303729,0.2,0.14
-0.13794228713361667,0.2,0.17
-0.017892469812125753,0.2,0.14
-0.025252468369288426,0.2,0.14
-0.04352008497549131,0.2,0.15
-0.5931256984222659,0.2,0.36
-0.3443531291118128,0.2,0.41
-0.03951551394216869,0.2,0.14
-0.036350151734611376,0.2,0.15
-0.0242138590749731,0.2,0.14
-0.05604235877770206,0.2,0.14
-0.04527706772321092,0.2,0.14
-0.036720855249722816,0.2,0.15
-0.03906032945656949,0.2,0.14
-0.597430493823573,0.2,0.17
-0.04545107995262574,0.2,0.14
-0.02124570986286552,0.2,0.14
-0.5350839277619107,0.2,0.32
-0.2682902175664617,0.2,0.31
-0.03526540179711547,0.2,0.14
-0.018583138463635015,0.2,0.14
-0.02128416546907921,0.2,0.15
-0.029272201272077386,0.2,0.14
-0.04488707655760091,0.2,0.14
-0.02486761369868674,0.2,0.15
-0.04830325888485353,0.2,0.14
-0.31524691339977645,0.2,0.17
-0.048440809783990874,0.2,0.14
-0.03174024777401253,0.2,0.14
-0.22634167213014666,0.2,0.28
-0.4086284965498359,0.2,0.31
-0.23034200223944068,0.2,0.32
-0.28209587306766,0.2,0.31
-0.24876947278059017,0.2,0.27
-0.052206587875933706,0.2,0.14
-0.04243877665468722,0.2,0.14
-0.055551958632257835,0.2,0.15
-0.03149268005114777,0.2,0.14
-0.061742324500596024,0.2,0.14
-0.420528681054764,0.2,0.17
-0.021809555732134788,0.2,0.14
-0.04094907688984856,0.2,0.14
-0.3181587106740289,0.2,0.26
-0.6255926893549385,0.2,0.33
-0.2608646217935812,0.2,0.32
-0.032261010373226595,0.2,0.14
-0.029383207308395262,0.2,0.15
-0.04328189225871103,0.2,0.14
-0.049156963713407456,0.2,0.14
-0.020080431615136257,0.2,0.15
-0.027726308790390924,0.2,0.14
-0.6616218779687731,0.2,0.17
-0.09621538489388765,0.2,0.14
-0.06198529669859441,0.2,0.14
-0.13875753492598866,0.2,0.19
-0.13886701004324115,0.2,0.21
-0.03762748798846801,0.2,0.14
-0.0763595852802636,0.2,0.14
-0.05448878855040067,0.2,0.15
-0.03445280941765051,0.2,0.14
-0.037469896864606216,0.2,0.14
-0.05850022492932451,0.2,0.15
-0.04577617383923391,0.2,0.14
-0.1100245121852941,0.2,0.14
-0.39118943842427206,0.2,0.18
-0.042126320653076484,0.2,0.14
-0.04788595537462628,0.2,0.14
-0.277906907349424,0.2,0.29
-0.408587831602093,0.2,0.27
-0.31723444534594003,0.2,0.23
-0.14595192798167514,0.2,0.2
-0.09196836779787329,0.2,0.14
-0.08665155377584857,0.2,0.14
-0.0672631861389023,0.2,0.15
-0.07951538747753577,0.2,0.14
-0.032743138200077244,0.2,0.14
-0.35863722873751497,0.2,0.17
-0.035107360761670224,0.2,0.14
-0.028974197709658204,0.2,0.14
-0.2891741282729075,0.2,0.23
-0.4146956627515156,0.2,0.36
-0.050024409221966576,0.2,0.14
-0.02930374771001861,0.2,0.14
-0.016179192629010603,0.2,0.15
-0.043136727001479386,0.2,0.14
-0.03225034707985877,0.2,0.14
-0.03337430909319762,0.2,0.15
-0.026282333520487446,0.2,0.14
-0.034750407812850805,0.2,0.14
-0.3484240395307582,0.2,0.17
-0.0405080472993262,0.2,0.14
-0.054475911070367054,0.2,0.14
-0.31936517833075867,0.2,0.25
-0.5736122980215679,0.2,0.48
-0.3403072798033395,0.2,0.34
-0.0407284333217002,0.2,0.15
-0.053214350294342024,0.2,0.14
-0.04810713419741079,0.2,0.14
-0.04993570586650887,0.2,0.14
-0.04373514898015538,0.2,0.15
-0.037251336747678304,0.2,0.14
-0.569598277520223,0.2,0.17
-0.043315329340667015,0.2,0.14
-0.04246092992051088,0.2,0.14
-0.2818252468301943,0.2,0.27
-0.21400719207750585,0.2,0.21
-0.24417959048678675,0.2,0.29
-0.3759652087707429,0.2,0.2
-0.06449279443757815,0.2,0.14
-0.07392605814948419,0.2,0.15
-0.05492215080837379,0.2,0.14
-0.09622808487576373,0.2,0.14
-0.05754120963414375,0.2,0.15
-0.04599321627932564,0.2,0.14
-0.07633021302946448,0.2,0.17
-0.022254477710328173,0.2,0.14
-0.05025747242857345,0.2,0.14
-0.4981213181998837,0.2,0.44
-0.6071763163720384,0.2,0.29
-0.048642376026902454,0.2,0.14
-0.039085506442689676,0.2,0.15
-0.016926460614727808,0.2,0.14
-0.030854855438332787,0.2,0.14
-0.020793845691819073,0.2,0.15
-0.035475328530887563,0.2,0.14
-0.04698807496854457,0.2,0.14
-0.3183629718081248,0.2,0.18
-0.0878950173569091,0.2,0.16
-0.03991685033540609,0.2,0.14
-0.3191743968170197,0.2,0.39
-0.3248875769957116,0.2,0.4
-0.06620408428135584,0.2,0.14
-0.31353231347118055,0.2,0.27
-0.11017080813772658,0.2,0.14
-0.09667535223853796,0.2,0.15
-0.10817721560291929,0.2,0.14
-0.04499038519751568,0.2,0.14
-0.06346236906840143,0.2,0.15
-0.050089098598497486,0.2,0.14
-0.03364399094271161,0.2,0.17
-0.03826361730059704,0.2,0.14
-0.06286756568348117,0.2,0.14
-0.36740647523898734,0.2,0.25
-0.5761653028965905,0.2,0.26
-0.053658807023830274,0.2,0.14
-0.03052477530612671,0.2,0.15
-0.05634542383983677,0.2,0.14
-0.06264676469003164,0.2,0.14
-0.05908258817240848,0.2,0.14
-0.05383500896091774,0.2,0.15
-0.0635538455100371,0.2,0.14
-0.363757448682888,0.2,0.17
-0.03225404855047906,0.2,0.14
-0.021507554052047465,0.2,0.14
-0.22222791455391067,0.2,0.29
-0.3118541481066317,0.2,0.36
-0.038729612066881206,0.2,0.15
-0.024166768376650445,0.2,0.14
-0.024256962786272422,0.2,0.14
-0.0339263269478896,0.2,0.15
-0.01918686057087427,0.2,0.14
-0.05001071005947207,0.2,0.14
-0.03793426389652034,0.2,0.14
-0.047752665143087944,0.2,0.15
-0.27347379031883723,0.2,0.17
-0.028200308323855346,0.2,0.14
-0.017537639930664924,0.2,0.14
-0.2892633154258384,0.2,0.39
-0.412565302653724,0.2,0.37
-0.0587813416797742,0.2,0.14
-0.029855253155837553,0.2,0.15
-0.029585710861472308,0.2,0.14
-0.027337925487653875,0.2,0.14
-0.03911127573669379,0.2,0.14
-0.021601447544777972,0.2,0.15
-0.030865906666648703,0.2,0.14
-0.18824273529532934,0.2,0.17
-0.0391541684264963,0.2,0.14
-0.06231662534498637,0.2,0.14
-0.11431872807317772,0.2,0.19
-0.35610350045298694,0.2,0.26
-0.05741566439856157,0.2,0.15
-0.037600715553964395,0.2,0.14
-0.041234500274346816,0.2,0.14
-0.06191827937334197,0.2,0.15
-0.033988729492764845,0.2,0.14
-0.0343382490635701,0.2,0.14
-0.03577264979587876,0.2,0.15
-0.05302974662700878,0.2,0.14
-0.41577840533870786,0.2,0.17
-0.029028518585363622,0.2,0.14
-0.05245235958820874,0.2,0.14
-0.30102254329244515,0.2,0.28
-0.4078619255183918,0.2,0.31
-0.02110989067551716,0.2,0.14
-0.032717886362278424,0.2,0.15
-0.039591968813453136,0.2,0.14
-0.06017619098220031,0.2,0.14
-0.04358627936626805,0.2,0.15
-0.07106006392773638,0.2,0.14
-0.053009944132149975,0.2,0.14
-0.7111222646780407,0.2,0.17
-0.027466653409003533,0.2,0.14
-0.04251412684046918,0.2,0.14
-0.4085015268979789,0.2,0.25
-0.40347767187123673,0.2,0.51
-0.3334794385746405,0.2,0.36
-0.04474792593349271,0.2,0.14
-0.028820363308754218,0.2,0.14
-0.030269370522542447,0.2,0.14
-0.05023880617935431,0.2,0.15
-0.033086009569555985,0.2,0.14
-0.052698406007148195,0.2,0.14
-0.051848717172926155,0.2,0.15
-0.5763731482630616,0.2,0.17
-0.04622470808983757,0.2,0.14
-0.04475936635055792,0.2,0.14
-0.05956444594132824,0.2,0.15
-0.27773594985961547,0.2,0.38
-0.41136019961622405,0.2,0.45
-0.28324371461977044,0.2,0.34
-0.11004845972493779,0.2,0.15
-0.09603102400155421,0.2,0.16
-0.07526528224092319,0.2,0.14
-0.0465100678579517,0.2,0.14
-0.05525298586387842,0.2,0.14
-0.16774729643897882,0.2,0.18
-0.04429859281551167,0.2,0.14
-0.04345589797564643,0.2,0.14
-0.2452493497705035,0.2,0.27
-0.25062704823844156,0.2,0.32
-0.32221423165288743,0.2,0.46
-0.3605896441150841,0.2,0.28
-0.10443457922530953,0.2,0.18
-0.03128182981227066,0.2,0.14
-0.03366675203744415,0.2,0.15
-0.0769223111467366,0.2,0.14
-0.04963424545074925,0.2,0.14
-0.05600395197133363,0.2,0.15
-0.18643000220672432,0.2,0.29
-0.08604736340975101,0.2,0.14
-0.1197119180464309,0.2,0.14
-0.21856911671832363,0.2,0.23
-0.06033300084370782,0.2,0.15
-0.1882187279717015,0.2,0.21
-0.22935575200764352,0.2,0.19
-0.1191618910579302,0.2,0.14
-0.13804473624960814,0.2,0.15
-0.1388248058755809,0.2,0.16
-0.14177011481832627,0.2,0.15
-0.14591592491574623,0.2,0.14
-0.9046108511353028,0.2,0.19
-0.30711458552062443,0.2,0.34
-0.2587764480266588,0.2,0.23
-0.32097078969033166,0.2,0.26
-0.3422022575625881,0.2,0.22
-0.2534876759101379,0.2,0.3
-0.3022787507676061,0.2,0.23
-0.3152571083540411,0.2,0.32
-0.14375134964087544,0.2,0.16
-0.13415481966404538,0.2,0.14
-0.1290423208113723,0.2,0.15
-0.15355437930796814,0.2,0.14
-0.14123575875630026,0.2,0.15
-2.042134082521382,0.2,0.18
-0.048722966204805186,0.2,0.15
-0.04352228836972269,0.2,0.14
-0.2226345352755754,0.2,0.19
-0.375222260617585,0.2,0.34
-0.05655608067916663,0.2,0.14
-0.08450311040696115,0.2,0.15
-0.038372446800925906,0.2,0.15
-0.08242262195607257,0.2,0.14
-0.07978352959614274,0.2,0.14
-0.05748518578624497,0.2,0.15
-0.06671787460926648,0.2,0.14
-0.855634805580106,0.2,0.17
-0.046983274053364804,0.2,0.14
-0.07828453891521239,0.2,0.14
-0.05265158930050858,0.2,0.15
-0.147737284337222,0.2,0.19
-0.06993278453746539,0.2,0.15
-0.032220616383367186,0.2,0.14
-0.03880258022917781,0.2,0.14
-0.06297029604329973,0.2,0.14
-0.04995677326982541,0.2,0.15
-0.031413641746316584,0.2,0.14
-0.039007856318776964,0.2,0.14
-0.05114876967609831,0.2,0.15
-0.039107012128521634,0.2,0.17
-0.03586731786503065,0.2,0.14
-0.04706202386479877,0.2,0.14
-0.5949727152983882,0.2,0.35
-0.30726569186151836,0.2,0.25
-0.051345637593442926,0.2,0.14
-0.03946653564105366,0.2,0.15
-0.03718761819149243,0.2,0.14
-0.03832726875015207,0.2,0.14
-0.03351994020318001,0.2,0.15
-0.022544767128338385,0.2,0.14
-0.034497593397641926,0.2,0.14
-0.2133215690719068,0.2,0.17
-0.03693537954097628,0.2,0.14
-0.05309008640037842,0.2,0.14
-0.12129994723611183,0.2,0.2
-0.32053302537555745,0.2,0.25
-0.04291806766368452,0.2,0.14
-0.07703140058936138,0.2,0.14
-0.04913479001316182,0.2,0.15
-0.068519082373629,0.2,0.14
-0.08976594032129227,0.2,0.14
-0.06188010090749556,0.2,0.14
-0.04721072175155728,0.2,0.15
-0.0370282345182077,0.2,0.14
-0.5194797871911793,0.2,0.17
-0.12617223672494474,0.2,0.16
-0.05394353666637488,0.2,0.14
-0.32666949626725067,0.2,0.3
-0.442621143956798,0.2,0.39
-0.14766915687637908,0.2,0.21
-0.3003285428601585,0.2,0.35
-0.23315213946688476,0.2,0.32
-0.1663623632887579,0.2,0.18
-0.06966697706586841,0.2,0.15
-0.07965241898367152,0.2,0.14
-0.07438841689781951,0.2,0.14
-0.9507130428199371,0.2,0.17
-0.05074460527360872,0.2,0.14
-0.04175103030531486,0.2,0.14
-0.11951543111068665,0.2,0.2
-0.17502550952009097,0.2,0.18
-0.03493111769597515,0.2,0.15
-0.044260320736146455,0.2,0.14
-0.04144534153655787,0.2,0.14
-0.0275108103239565,0.2,0.15
-0.04355485140688486,0.2,0.14
-0.03901594613382636,0.2,0.14
-0.038765852598839225,0.2,0.14
-0.023177083953810372,0.2,0.15
-0.07515089298681113,0.2,0.18
-0.026559444892939748,0.2,0.14
-0.04476842812016788,0.2,0.14
-0.4748863945762193,0.2,0.28
-0.23052045296727286,0.2,0.24
-0.12121253367154246,0.2,0.15
-0.03257469053226776,0.2,0.14
-0.08629034785959373,0.2,0.14
-0.08954830211371075,0.2,0.17
-0.06434847788247047,0.2,0.15
-0.03083290263153942,0.2,0.14
-0.037722146062755084,0.2,0.14
-0.6651665012506953,0.2,0.17
-0.08514392971515826,0.2,0.14
-0.04961012144743754,0.2,0.14
-0.2225724586842351,0.2,0.2
-0.3979512693434574,0.2,0.37
-0.5308649531135403,0.2,0.32
-0.03616566950184659,0.2,0.15
-0.05556173106965277,0.2,0.14
-0.04831057819231837,0.2,0.14
-0.05319176216267868,0.2,0.14
-0.044760553376161645,0.2,0.15
-0.08333291092213485,0.2,0.15
-0.04422370515938008,0.2,0.14
-0.5599878333924908,0.2,0.17
-0.06403965673199477,0.2,0.14
-0.047808605003587,0.2,0.14
-0.28033888115886674,0.2,0.28
-0.35548042556922715,0.2,0.42
-0.2382169269698298,0.2,0.36
-0.22990215776482983,0.2,0.34
-0.06887972519867788,0.2,0.14
-0.04736723153522424,0.2,0.15
-0.037109098866739576,0.2,0.14
-0.030150159408242495,0.2,0.14
-0.06686454382977153,0.2,0.14
-0.4071890953517432,0.2,0.18
-0.03282654422882131,0.2,0.14
-0.05861374811502988,0.2,0.14
-0.365544772929199,0.2,0.26
-0.6004331029220046,0.2,0.27
-0.038282186679861045,0.2,0.15
-0.029790354046585775,0.2,0.14
-0.021934443505299696,0.2,0.14
-0.03269028334012244,0.2,0.15
-0.048901956814479106,0.2,0.14
-0.040611371593528095,0.2,0.14
-0.05118174874594785,0.2,0.14
-0.055058145628461556,0.2,0.15
-0.39359284575604403,0.2,0.17
-0.03843683137315333,0.2,0.14
-0.08434250051475173,0.2,0.15
-0.6435134581077055,0.2,0.43
-0.30950980417482626,0.2,0.2
-0.06226489504335904,0.2,0.15
-0.053661352608351205,0.2,0.14
-0.026476604878876653,0.2,0.14
-0.029530164797231206,0.2,0.15
-0.03402764922268056,0.2,0.14
-0.07019048473195072,0.2,0.14
-0.05849382328799213,0.2,0.14
-0.13107411355633292,0.2,0.18
-0.037227298599661326,0.2,0.14
-0.039887553355441446,0.2,0.14
-0.34210333152357963,0.2,0.34
-0.4910927944833782,0.2,0.38
-0.4580678949410184,0.2,0.4
-0.06235201928644213,0.2,0.14
-0.028186094859199987,0.2,0.14
-0.04561530246666003,0.2,0.15
-0.04136614987922236,0.2,0.14
-0.02983692678361377,0.2,0.14
-0.03617539258043694,0.2,0.14
-0.03274669978042457,0.2,0.15
-0.8419288422625496,0.2,0.17
-0.0536005609267264,0.2,0.14
-0.037043142192776164,0.2,0.14
-0.20640867341835087,0.2,0.28
-0.26798878621560557,0.2,0.24
-0.3189221354204069,0.2,0.33
-0.2459574500069458,0.2,0.35
-0.21477191251010866,0.2,0.3
-0.045396141207809035,0.2,0.14
-0.07376561966880776,0.2,0.14
-0.05464678519058495,0.2,0.15
-0.0448010377611908,0.2,0.14
-0.26596639336365724,0.2,0.17
-0.041064272628682924,0.2,0.14
-0.03682953550822603,0.2,0.14
-0.24663595718479642,0.2,0.25
-0.13762782868422024,0.2,0.15
-0.35333620960782175,0.2,0.23
-0.26522565665986153,0.2,0.19
-0.0923641368745523,0.2,0.15
-0.03767418836846103,0.2,0.14
-0.05784145881252389,0.2,0.14
-0.04329272060101979,0.2,0.15
-0.08572960041953966,0.2,0.14
-0.06321874995557732,0.2,0.14
-0.29442044886605023,0.2,0.21
-0.07237544827727813,0.2,0.14
-0.02914975006050629,0.2,0.15
-0.7209363393229167,0.2,0.41
-0.47927329608411723,0.2,0.44
-0.09168053362530426,0.2,0.19
-0.03531869385212669,0.2,0.14
-0.04670550937492976,0.2,0.14
-0.04204429924163007,0.2,0.14
-0.03582622090333022,0.2,0.15
-0.029438325906139564,0.2,0.14
-0.046264277962985885,0.2,0.14
-0.9131216063573572,0.2,0.17
-0.034277646794381576,0.2,0.14
-0.05396266877325186,0.2,0.14
-0.04423979389758631,0.2,0.15
-0.6627598562642228,0.2,0.47
-0.39685311607547996,0.2,0.64
-0.053910162143165054,0.2,0.14
-0.021995826913474917,0.2,0.14
-0.07474785400624828,0.2,0.14
-0.02957243277783241,0.2,0.15
-0.06031997286139438,0.2,0.14
-0.03842410240086022,0.2,0.14
-0.04094323966104823,0.2,0.15
-0.4206242288379442,0.2,0.17
-0.05082791106835895,0.2,0.14
-0.04626091755124805,0.2,0.14
-0.2298931666693835,0.2,0.23
-0.11506776166526284,0.2,0.14
-0.07367631236403843,0.2,0.15
-0.06614656674907135,0.2,0.14
-0.048806854123884295,0.2,0.14
-0.04059406655293368,0.2,0.15
-0.0386264911619271,0.2,0.14
-0.05905648137749927,0.2,0.14
-0.03380508894662264,0.2,0.14
-0.27970956476204983,0.2,0.19
-0.05050964172612125,0.2,0.15
-0.038685540393724634,0.2,0.14
-0.25054944199855717,0.2,0.2
-0.08885576946158745,0.2,0.14
-0.08301460920066821,0.2,0.15
-0.16220099618164743,0.2,0.17
-0.27017344192055576,0.2,0.29
-0.06680110525673452,0.2,0.14
-0.07417141241270961,0.2,0.14
-0.04059272403144944,0.2,0.15
-0.0730784630363167,0.2,0.14
-0.07618587438516869,0.2,0.14
-0.5746449548987671,0.2,0.17
-0.033077987120315525,0.2,0.14
-0.026940916560399653,0.2,0.14
-0.4798123502981826,0.2,0.3
-0.08018527963322417,0.2,0.14
-0.05789389472076235,0.2,0.14
-0.049642026267742834,0.2,0.15
-0.04913228186619899,0.2,0.14
-0.03767288772138677,0.2,0.14
-0.041768644281352074,0.2,0.15
-0.038059805323252364,0.2,0.14
-0.04707510891065317,0.2,0.14
-0.07917070393411721,0.2,0.17
-0.03648635322962888,0.2,0.14
-0.017386187586389216,0.2,0.14
-0.13015674316477202,0.2,0.15
-0.4978553136761372,0.2,0.56
-0.5393730664842461,0.2,0.26
-0.05162101138624702,0.2,0.14
-0.0769940281965772,0.2,0.14
-0.05952272091275837,0.2,0.14
-0.034929284305550576,0.2,0.15
-0.0416595855197967,0.2,0.14
-0.03604732161582041,0.2,0.14
-0.059604577071759306,0.2,0.15
-0.5533958014253174,0.2,0.17
-0.02792390152256823,0.2,0.14
-0.07716374179994653,0.2,0.14
-0.6942559197777283,0.2,0.48
-0.28943426770082553,0.2,0.25
-0.03638003248977371,0.2,0.14
-0.024184883514519404,0.2,0.14
-0.05219827822987735,0.2,0.15
-0.03948993305663253,0.2,0.14
-0.04167534685225537,0.2,0.14
-0.040608903306938,0.2,0.15
-0.05899118283926318,0.2,0.14
-0.22284506756992806,0.2,0.17
-0.14761140708596343,0.2,0.17
-0.05220694125744782,0.2,0.14
-0.3073921753213973,0.2,0.28
-0.20920282242269667,0.2,0.19
-0.297972771750218,0.2,0.22
-0.38149434487781686,0.2,0.26
-0.09499032848669162,0.2,0.15
-0.10736869424718748,0.2,0.17
-0.026111893348674264,0.2,0.14
-0.03713355710543887,0.2,0.14
-0.06636574998500741,0.2,0.14
-0.04292101954649435,0.2,0.15
-0.5701673420226289,0.2,0.17
-0.028942276597843947,0.2,0.14
-0.028807369632302186,0.2,0.14
-0.454266373259537,0.2,0.41
-0.6862901669628795,0.2,0.3
-0.027846376231138146,0.2,0.15
-0.03872774053010963,0.2,0.14
-0.02356956797884015,0.2,0.14
-0.04380100784734388,0.2,0.15
-0.027110869432430476,0.2,0.14
-0.039852686095699606,0.2,0.14
-0.05286912204405202,0.2,0.14
-0.33922896039739026,0.2,0.19
-0.09429352958522003,0.2,0.15
-0.08652098640791403,0.2,0.14
-0.14573426689613062,0.2,0.15
-0.10071265601954048,0.2,0.14
-0.19915405907148645,0.2,0.15
-0.14857325276069783,0.2,0.18
-0.14778119599920939,0.2,0.14
-0.19265275104313748,0.2,0.16
-0.20741300388530345,0.2,0.16
-0.21289204056977337,0.2,0.16
-0.18015323439246647,0.2,0.15
-0.16805166079502468,0.2,0.15
-1.4515253905918453,0.2,0.17
-0.06254673704121104,0.2,0.14
-0.05313829685369124,0.2,0.14
-0.6719810976748708,0.2,0.45
-0.24813459195091267,0.2,0.23
-0.47843857619633784,0.2,0.29
-0.05045711395983762,0.2,0.15
-0.042911704432140714,0.2,0.14
-0.033552746226387084,0.2,0.14
-0.06767681277283602,0.2,0.14
-0.04376086130496109,0.2,0.15
-0.05855214676903927,0.2,0.14
-0.7012345248020837,0.2,0.17
-0.04105524889570789,0.2,0.14
-0.06253295075547073,0.2,0.14
-0.3478672544171562,0.2,0.21
-0.055107410231791304,0.2,0.15
-0.35412831278237794,0.2,0.41
-0.22215859189293594,0.2,0.19
-0.42906080321771706,0.2,0.33
-0.0958749144392809,0.2,0.15
-0.05508083962895616,0.2,0.14
-0.06834105320201891,0.2,0.14
-0.031989423523381515,0.2,0.14
-0.08598032669727601,0.2,0.15
-0.20649899947468356,0.2,0.17
-0.04442952720733842,0.2,0.14
-0.05627001334147273,0.2,0.14
-0.7823224603394598,0.2,0.41
-0.49465531208559044,0.2,0.42
-0.055972623121478327,0.2,0.14
-0.05427435944051363,0.2,0.15
-0.047328517897812755,0.2,0.14
-0.043227112051231864,0.2,0.14
-0.04375345832363006,0.2,0.14
-0.07409450704850734,0.2,0.15
-0.053650739020260275,0.2,0.14
-1.0536084655595523,0.2,0.17
-0.06195466514430603,0.2,0.14
-0.05171722807274246,0.2,0.14
-0.3621723704942415,0.2,0.27
-0.5843345156394077,0.2,0.3
-0.45773573949675783,0.2,0.33
-0.04972056630923747,0.2,0.14
-0.02616836374601786,0.2,0.14
-0.03915756690623193,0.2,0.15
-0.03975342324915255,0.2,0.14
-0.04602440384966334,0.2,0.14
-0.06759506035442503,0.2,0.14
-0.046440763707164594,0.2,0.15
-0.7325316537896684,0.2,0.17
-0.05057099629372263,0.2,0.14
-0.058855021042388524,0.2,0.14
-0.7974809738465319,0.2,0.41
-0.5373482810269785,0.2,0.37
-0.16901930141173604,0.2,0.2
-0.07134422294692613,0.2,0.15
-0.05525055500169857,0.2,0.14
-0.05097896040550202,0.2,0.14
-0.06340198602796376,0.2,0.14
-0.061676766201480826,0.2,0.15
-0.06899576783508986,0.2,0.14
-0.7399480171263154,0.2,0.17
-0.053446938276142705,0.2,0.14
-0.051277623238705196,0.2,0.14
-0.16844110171495583,0.2,0.19
-0.2510843200806383,0.2,0.19
-0.46159098578528535,0.2,0.21
-0.05681025046703013,0.2,0.14
-0.04192646942008421,0.2,0.14
-0.045866153847461115,0.2,0.14
-0.05650614177277324,0.2,0.15
-0.05464875243440871,0.2,0.14
-0.05131293207669456,0.2,0.14
-0.03907416669829144,0.2,0.15
-0.3435075020422819,0.2,0.17
-0.0403004555809786,0.2,0.14
-0.035703060191528344,0.2,0.14
-0.6106609083004261,0.2,0.28
-0.4132114242914049,0.2,0.3
-0.05751733387152711,0.2,0.15
-0.03541411173190945,0.2,0.14
-0.05625331263821157,0.2,0.14
-0.03031186729365609,0.2,0.15
-0.03520632433744509,0.2,0.14
-0.048306711203641835,0.2,0.14
-0.05199844688151438,0.2,0.14
-0.3990076386186005,0.2,0.2
-0.10717176913957416,0.2,0.15
-0.05146649877133097,0.2,0.14
-0.22298929321382482,0.2,0.2
-0.11620293208164327,0.2,0.15
-0.09978247210254788,0.2,0.15
-0.26076282332168377,0.2,0.2
-0.2610384866701084,0.2,0.21
-0.11489921752513371,0.2,0.16
-0.1006451456471201,0.2,0.14
-0.08536067070899045,0.2,0.14
-0.05158690441158942,0.2,0.14
-0.09490687026886535,0.2,0.15
-0.6235399849855064,0.2,0.17
-0.08441659762407665,0.2,0.14
-0.0421353219204996,0.2,0.14
-0.5683422739976605,0.2,0.56
-0.5858814300763819,0.2,0.57
-0.0910319959574718,0.2,0.14
-0.07272760264153855,0.2,0.14
-0.06763333442267648,0.2,0.15
-0.08663494644552393,0.2,0.14
-0.06275989312294027,0.2,0.14
-0.0616027451783414,0.2,0.14
-0.08921964924289015,0.2,0.15
-1.1556745981432572,0.2,0.17
-0.042873538318500416,0.2,0.14
-0.04087676894202849,0.2,0.14
-0.5823680973809287,0.2,0.22
-0.47151691701092596,0.2,0.24
-0.0864690476071967,0.2,0.14
-0.086363749968398,0.2,0.14
-0.03431193250434379,0.2,0.15
-0.05595123677428647,0.2,0.14
-0.027768329828298927,0.2,0.14
-0.036512288739124016,0.2,0.14
-0.0420546853795206,0.2,0.15
-0.033827564452962866,0.2,0.14
-0.107959738914235,0.2,0.17
-0.09579197753994396,0.2,0.14
-0.0562844427030663,0.2,0.14
-0.3981977899874322,0.2,0.31
-0.3879754162906785,0.2,0.36
-0.4965799003654591,0.2,0.24
-0.11721675220927774,0.2,0.14
-0.05311860805566197,0.2,0.14
-0.08606000175019862,0.2,0.15
-0.07314058201352712,0.2,0.14
-0.06707821831754877,0.2,0.14
-0.06793229597472931,0.2,0.15
-0.6719956867452811,0.2,0.19
-0.14368452338926305,0.2,0.16
-0.08186179503587988,0.2,0.14
-0.16690943771756786,0.2,0.18
-0.1563313330124627,0.2,0.15
-0.18641084415216547,0.2,0.19
-0.444103226082189,0.2,0.23
-0.1291563234748271,0.2,0.19
-0.09393993930645135,0.2,0.14
-0.11173406032936523,0.2,0.14
-0.07776132827758589,0.2,0.14
-0.05386592733845549,0.2,0.15
-0.06405615996194512,0.2,0.14
-0.5489207255656797,0.2,0.17
-0.03805165547151689,0.2,0.14
-0.04059484585737028,0.2,0.14
-0.7727960387234185,0.2,0.41
-0.043191197839433614,0.2,0.15
-0.04460432065533098,0.2,0.14
-0.03014790449059685,0.2,0.14
-0.025914675806825226,0.2,0.14
-0.07064772928960845,0.2,0.15
-0.13934172505087808,0.2,0.14
-0.05262877804457775,0.2,0.14
-0.041245059432254094,0.2,0.15
-0.3491384730416507,0.2,0.17
-0.043666476417143926,0.2,0.14
-0.03269778594010143,0.2,0.14
-0.06963429797317082,0.2,0.15
-0.24928058508801063,0.2,0.19
-0.2909945488666512,0.2,0.19
-0.0983608582204391,0.2,0.14
-0.21227097723394797,0.2,0.19
-0.05070936334858534,0.2,0.14
-0.07129543552917461,0.2,0.14
-0.05181053899199915,0.2,0.15
-0.10253376505049241,0.2,0.15
-0.035045374414046315,0.2,0.14
-0.223467506742936,0.2,0.17
-0.07459308763868554,0.2,0.14
-0.0601068245801377,0.2,0.14
-0.33916660469495813,0.2,0.36
-0.6079754394687391,0.2,0.3
-0.04615732481389735,0.2,0.14
-0.035192773156521875,0.2,0.15
-0.04646172862745417,0.2,0.14
-0.031111172748417452,0.2,0.14
-0.061162510402204176,0.2,0.14
-0.05518907893649225,0.2,0.15
-0.045606773219175056,0.2,0.14
-0.4821043535690177,0.2,0.17
-0.059602336874710095,0.2,0.14
-0.07613193895970839,0.2,0.14
-0.4534051160374903,0.2,0.24
-0.702649293626652,0.2,0.28
-0.07337537165284298,0.2,0.14
-0.06817416716288748,0.2,0.14
-0.04568152061458033,0.2,0.14
-0.06457537709067687,0.2,0.15
-0.06715104031488571,0.2,0.14
-0.03710304193783544,0.2,0.14
-0.07293241339848686,0.2,0.15
-0.07795656768133549,0.2,0.14
-0.2688232878586851,0.2,0.18
-0.04597863722852387,0.2,0.14
-0.09267319398035945,0.2,0.14
-0.7512398596410819,0.2,0.32
-0.1643198036749876,0.2,0.14
-0.06407961028514811,0.2,0.14
-0.05055476589756411,0.2,0.15
-0.0665335520496705,0.2,0.14
-0.05859362861021258,0.2,0.14
-0.04798404279208281,0.2,0.15
-0.04544862724343924,0.2,0.14
-0.06875353474157861,0.2,0.14
-0.5385631356457677,0.2,0.17
-0.06311583234521403,0.2,0.14
-0.045715387214839615,0.2,0.14
-0.09613457324617533,0.2,0.15
-0.20548676598669174,0.2,0.19
-0.0697389806411207,0.2,0.14
-0.06672229024123696,0.2,0.15
-0.07517683338330135,0.2,0.14
-0.053033389669522264,0.2,0.14
-0.06716349394156954,0.2,0.14
-0.06701722432225177,0.2,0.15
-0.06554234629372445,0.2,0.14
-0.07857619329522049,0.2,0.14
-0.10925733751187973,0.2,0.17
-0.030403060324643516,0.2,0.14
-0.04283230885285011,0.2,0.14
-0.41547612897703123,0.2,0.26
-0.6505300493762359,0.2,0.41
-0.3685665604629796,0.2,0.23
-0.021377038126209922,0.2,0.15
-0.04072428522055439,0.2,0.14
-0.03923638293657028,0.2,0.14
-0.05548362003945625,0.2,0.15
-0.064744713093514,0.2,0.14
-0.05022724813673528,0.2,0.14
-0.7861280418200866,0.2,0.18
-0.10478572482247062,0.2,0.14
-0.08438558680743878,0.2,0.14
-0.12899949296499927,0.2,0.16
-0.28314467073929633,0.2,0.28
-0.5315604505098966,0.2,0.4
-0.424038297134466,0.2,0.31
-0.5649874006567089,0.2,0.36
-0.09701034943893307,0.2,0.14
-0.1199060899333139,0.2,0.14
-0.08647141761943253,0.2,0.15
-0.06298768432787798,0.2,0.14
-0.08384904313753988,0.2,0.14
-0.30997831198015696,0.3,0.22
0.4823063057283641,0.3,0.2
-0.46845780463971315,0.3,0.2
2.743740090151929,0.3,0.2
-0.04588366866847617,0.3,0.7
-0.02332492922774047,0.3,0.36
-0.0046892513706719135,0.3,0.21
-0.0030167597244089915,0.3,0.2
-0.002820965314961892,0.3,0.2
-0.003709052880194531,0.3,0.22
-0.003032187725508539,0.3,0.21
-0.0026547665533934125,0.3,0.2
-0.03697969254084632,0.3,0.25
-0.004203479604548129,0.3,0.25
-0.0038357505925204574,0.3,0.21
-0.010402458981941507,0.3,0.46
-0.007728157506030598,0.3,0.35
-0.0028247532499217397,0.3,0.21
-0.006315184302499456,0.3,0.28
-0.019787295424501628,0.3,0.49
-0.010545028484643284,0.3,0.29
-0.004712215587540946,0.3,0.2
-0.008109555547986418,0.3,0.23
-0.005741912281082156,0.3,0.2
-0.007959621187826643,0.3,0.2
-0.08466625426637106,0.3,0.22
-0.005730497347059125,0.3,0.2
-0.00702433071113716,0.3,0.21
-0.06591385073411138,0.3,0.71
-0.03548063523105687,0.3,0.3
-0.004839312935609272,0.3,0.2
-0.014059308694928677,0.3,0.24
-0.005775826242469197,0.3,0.21
-0.005565859514895139,0.3,0.2
-0.0038363747481635095,0.3,0.2
-0.0024182160035743755,0.3,0.2
-0.005021122233058922,0.3,0.21
-0.059074368297914806,0.3,0.22
-0.004555614994878584,0.3,0.2
-0.007108461725680922,0.3,0.26
-0.012035631616253616,0.3,0.36
-0.023214572150379253,0.3,0.31
-0.005974671283263577,0.3,0.22
-0.009010890193651946,0.3,0.23
-0.009641050480381344,0.3,0.25
-0.006349960221802823,0.3,0.21
-0.0066198431509316,0.3,0.2
-0.006979465191410809,0.3,0.21
-0.006853205787809875,0.3,0.21
-0.0042959288403034476,0.3,0.2
-0.026656890366884095,0.3,0.22
-0.0072907576091109875,0.3,0.2
-0.00632834705838901,0.3,0.2
-0.059525566389718475,0.3,0.38
-0.08333807309589318,0.3,0.7
-0.06900809724480148,0.3,0.42
-0.008249009275701552,0.3,0.22
-0.010736598490993057,0.3,0.23
-0.006942796874708596,0.3,0.2
-0.010744622835303232,0.3,0.2
-0.007708224462002056,0.3,0.2
-0.01531949677002704,0.3,0.23
-0.2006946561880583,0.3,0.22
-0.017366328612427928,0.3,0.23
-0.016676483378872883,0.3,0.2
-0.14004140617076755,0.3,0.39
-0.17921323812242207,0.3,0.78
-0.15346438301504778,0.3,0.4
-0.012636400198951873,0.3,0.2
-0.013837997434684019,0.3,0.2
-0.03018394785572695,0.3,0.21
-0.0296282865685244,0.3,0.2
-0.027600737379721404,0.3,0.2
-0.04743817197550529,0.3,0.2
-0.0674835590473333,0.3,0.2
-0.9566190824884189,0.3,0.24
-0.12233927318322423,0.3,0.22
-0.11844130886818985,0.3,0.22
15.081519451261252,0.3,0.59
-3.7657987355737,0.3,0.33
-0.25547893926099985,0.3,0.22
-0.10162809250454265,0.3,0.2
-0.11252250568749175,0.3,0.21
-0.07511818427491053,0.3,0.2
-0.06410819371395728,0.3,0.2
-0.0521970072903256,0.3,0.2
-0.07741009811092481,0.3,0.21
-0.17965803658818522,0.3,0.22
-0.06957233535724125,0.3,0.2
-0.07038060095631272,0.3,0.2
-0.993100277040395,0.3,0.44
-0.9485060093820552,0.3,0.63
-0.08332640354965246,0.3,0.2
-0.12427951060131752,0.3,0.23
-0.14881378445018748,0.3,0.24
-0.14110364919938134,0.3,0.23
-0.12810078807514785,0.3,0.21
-0.12274632302860305,0.3,0.21
-0.1289327231655436,0.3,0.22
-0.10719538182427511,0.3,0.2
-0.45608403923556207,0.3,0.24
-0.16320831666721045,0.3,0.2
-0.13747347996361894,0.3,0.2
-0.61999125289856,0.3,0.37
-0.7745225768442774,0.3,0.31
-0.10991368293867387,0.3,0.24
-0.07831363741666708,0.3,0.24
-0.0760155821629719,0.3,0.23
-0.0644674249617275,0.3,0.25
-0.06257870414685404,0.3,0.36
-0.031614992708883405,0.3,0.22
-0.02732701528295987,0.3,0.21
-0.2526405599527758,0.3,0.27
-0.03325547520673222,0.3,0.22
-0.02554961828070811,0.3,0.2
-0.12674095765747506,0.3,0.47
-0.09804045523800299,0.3,0.44
-0.20442021864530283,0.3,0.62
-0.1631773982211252,0.3,0.41
-0.06155234297678127,0.3,0.26
-0.06627809938091114,0.3,0.25
-0.05330087753283378,0.3,0.23
-0.03511176307759609,0.3,0.21
-0.049168863424696924,0.3,0.23
-0.0550268084633376,0.3,0.24
-0.08854679027648349,0.3,0.24
-0.056541558077333395,0.3,0.26
-0.07147595375744586,0.3,0.26
-0.3129817139494644,0.3,0.39
-0.5726159292742629,0.3,0.52
-0.022611575876296402,0.3,0.2
-0.030707420617761768,0.3,0.21
-0.032694658952981626,0.3,0.21
-0.028318497545258236,0.3,0.2
-0.02830754106410499,0.3,0.21
-0.03915977519470839,0.3,0.22
-0.03202145205693089,0.3,0.21
-0.1908422578685803,0.3,0.24
-0.032306071593830483,0.3,0.23
-0.0183531059457666,0.3,0.2
-0.03085999098667997,0.3,0.21
-0.3408761515882843,0.3,0.57
-0.15443158592339717,0.3,0.43
-0.041592730512666,0.3,0.24
-0.025033576734237683,0.3,0.2
-0.023702936906372096,0.3,0.2
-0.023999758380296783,0.3,0.2
-0.03982242058953823,0.3,0.22
-0.018602311626409847,0.3,0.2
-0.017735968768873782,0.3,0.2
-0.10642814216209062,0.3,0.22
-0.015299964042819483,0.3,0.2
-0.02043777806860951,0.3,0.2
-0.2803097356716187,0.3,0.36
-0.42468314687859066,0.3,0.38
-0.029009311264840857,0.3,0.2
-0.04127546368948054,0.3,0.22
-0.041874335360754376,0.3,0.22
-0.0317609012156232,0.3,0.21
-0.029130429894795636,0.3,0.2
-0.027676414430135868,0.3,0.22
-0.03186960834361807,0.3,0.22
-0.18825929584941958,0.3,0.22
-0.015038745761371895,0.3,0.2
-0.013485222846001796,0.3,0.2
-0.18376397192344462,0.3,0.32
-0.24347879103619152,0.3,0.45
-0.023008181697633637,0.3,0.2
-0.020215463644458385,0.3,0.2
-0.024268576164288434,0.3,0.21
-0.016469118172637322,0.3,0.21
-0.02190144062989543,0.3,0.21
-0.01641587789708469,0.3,0.2
-0.018647429985631025,0.3,0.2
-0.014553314120337859,0.3,0.2
-0.1667775729762215,0.3,0.23
-0.01398026909684835,0.3,0.21
-0.010781237400206058,0.3,0.2
-0.08040145020921174,0.3,0.29
-0.07703875120383588,0.3,0.41
-0.019973062866908014,0.3,0.22
-0.021116215960108084,0.3,0.21
-0.019363000745715977,0.3,0.2
-0.019506435758045098,0.3,0.22
-0.01704084045402138,0.3,0.2
-0.022251620193662027,0.3,0.21
-0.030415000607912912,0.3,0.21
-0.16045076895168348,0.3,0.27
-0.03689013319358997,0.3,0.25
-0.04650677562901229,0.3,0.29
-0.036299756511245604,0.3,0.29
-0.07061058935622218,0.3,0.42
-0.18734909290278903,0.3,0.46
-0.1035711196582346,0.3,0.52
-0.08397307532188499,0.3,0.55
-0.036819216503095886,0.3,0.29
-0.04441755913013549,0.3,0.27
-0.03865962673579176,0.3,0.24
-0.02994539534539983,0.3,0.2
-0.027658710299967477,0.3,0.2
-0.24427175405225285,0.3,0.22
-0.016490594570346687,0.3,0.2
-0.018227204928631398,0.3,0.2
-0.1911809782173504,0.3,0.34
-0.2909808547034056,0.3,0.46
-0.12740572516023596,0.3,0.49
-0.056475145678176145,0.3,0.34
-0.01932837529866729,0.3,0.2
-0.02009877374733621,0.3,0.2
-0.02544519317671424,0.3,0.2
-0.020933127677990257,0.3,0.2
-0.011364707419551784,0.3,0.2
-0.08717959029415226,0.3,0.25
-0.031522312854159865,0.3,0.21
-0.025986648010473373,0.3,0.21
-0.16894896845043017,0.3,0.39
-0.3067331741452529,0.3,0.38
-0.020592574655871353,0.3,0.2
-0.01585011381926174,0.3,0.2
-0.021789196267550517,0.3,0.2
-0.022852892574692016,0.3,0.2
-0.022635973236194363,0.3,0.21
-0.024251726964448102,0.3,0.22
-0.018421277579256483,0.3,0.2
-0.01757133859849083,0.3,0.21
-0.170859713539068,0.3,0.4
-0.047842996273405734,0.3,0.34
